 frequency              plant_real             plant_imag            
 1.000000000000000e-01  1.883121011398373e+04 -9.889144839640974e+00 
 1.011579454259899e-01  1.883120999301783e+04 -1.000365567572092e+01 
 1.023292992280754e-01  1.883120986923426e+04 -1.011949248253126e+01 
 1.035142166679344e-01  1.883120974256740e+04 -1.023667061401007e+01 
 1.047128548050900e-01  1.883120961295012e+04 -1.035520560188287e+01 
 1.059253725177289e-01  1.883120948031366e+04 -1.047511315772115e+01 
 1.071519305237607e-01  1.883120934458770e+04 -1.059640917502487e+01 
 1.083926914021204e-01  1.883120920570028e+04 -1.071910973132895e+01 
 1.096478196143186e-01  1.883120906357774e+04 -1.084323109033414e+01 
 1.109174815262402e-01  1.883120891814477e+04 -1.096878970406277e+01 
 1.122018454301964e-01  1.883120876932424e+04 -1.109580221503906e+01 
 1.135010815672316e-01  1.883120861703719e+04 -1.122428545849505e+01 
 1.148153621496884e-01  1.883120846120295e+04 -1.135425646460196e+01 
 1.161448613840344e-01  1.883120830173887e+04 -1.148573246072726e+01 
 1.174897554939531e-01  1.883120813856039e+04 -1.161873087371797e+01 
 1.188502227437020e-01  1.883120797158100e+04 -1.175326933221047e+01 
 1.202264434617414e-01  1.883120780071217e+04 -1.188936566896682e+01 
 1.216186000646369e-01  1.883120762586330e+04 -1.202703792323845e+01 
 1.230268770812383e-01  1.883120744694165e+04 -1.216630434315687e+01 
 1.244514611771387e-01  1.883120726385242e+04 -1.230718338815244e+01 
 1.258925411794169e-01  1.883120707649847e+04 -1.244969373140063e+01 
 1.273503081016663e-01  1.883120688478051e+04 -1.259385426229725e+01 
 1.288249551693136e-01  1.883120668859685e+04 -1.273968408896165e+01 
 1.303166778452301e-01  1.883120648784351e+04 -1.288720254076956e+01 
 1.318256738556409e-01  1.883120628241403e+04 -1.303642917091462e+01 
 1.333521432163326e-01  1.883120607219946e+04 -1.318738375900007e+01 
 1.348962882591656e-01  1.883120585708839e+04 -1.334008631366029e+01 
 1.364583136588927e-01  1.883120563696675e+04 -1.349455707521244e+01 
 1.380384264602887e-01  1.883120541171780e+04 -1.365081651833911e+01 
 1.396368361055940e-01  1.883120518122215e+04 -1.380888535480205e+01 
 1.412537544622757e-01  1.883120494535757e+04 -1.396878453618696e+01 
 1.428893958511106e-01  1.883120470399901e+04 -1.413053525668038e+01 
 1.445439770745930e-01  1.883120445701847e+04 -1.429415895587868e+01 
 1.462177174456721e-01  1.883120420428505e+04 -1.445967732162945e+01 
 1.479108388168211e-01  1.883120394566470e+04 -1.462711229290580e+01 
 1.496235656094437e-01  1.883120368102032e+04 -1.479648606271412e+01 
 1.513561248436212e-01  1.883120341021160e+04 -1.496782108103528e+01 
 1.531087461682034e-01  1.883120313309493e+04 -1.514114005779987e+01 
 1.548816618912485e-01  1.883120284952340e+04 -1.531646596589814e+01 
 1.566751070108153e-01  1.883120255934663e+04 -1.549382204422446e+01 
 1.584893192461117e-01  1.883120226241079e+04 -1.567323180075733e+01 
 1.603245390690045e-01  1.883120195855845e+04 -1.585471901567477e+01 
 1.621810097358934e-01  1.883120164762849e+04 -1.603830774450591e+01 
 1.640589773199544e-01  1.883120132945604e+04 -1.622402232131902e+01 
 1.659586907437565e-01  1.883120100387244e+04 -1.641188736194658e+01 
 1.678804018122565e-01  1.883120067070501e+04 -1.660192776724738e+01 
 1.698243652461749e-01  1.883120032977712e+04 -1.679416872640675e+01 
 1.717908387157593e-01  1.883119998090802e+04 -1.698863572027471e+01 
 1.737800828749381e-01  1.883119962391273e+04 -1.718535452474286e+01 
 1.757923613958698e-01  1.883119925860196e+04 -1.738435121416036e+01 
 1.778279410038928e-01  1.883119888478202e+04 -1.758565216478943e+01 
 1.798870915128793e-01  1.883119850225473e+04 -1.778928405830092e+01 
 1.819700858609989e-01  1.883119811081725e+04 -1.799527388531020e+01 
 1.840772001468962e-01  1.883119771026201e+04 -1.820364894895401e+01 
 1.862087136662873e-01  1.883119730037668e+04 -1.841443686850902e+01 
 1.883649089489807e-01  1.883119688094393e+04 -1.862766558305167e+01 
 1.905460717963254e-01  1.883119645174131e+04 -1.884336335516080e+01 
 1.927524913190942e-01  1.883119601254131e+04 -1.906155877466326e+01 
 1.949844599758052e-01  1.883119556311106e+04 -1.928228076242240e+01 
 1.972422736114861e-01  1.883119510321226e+04 -1.950555857417076e+01 
 1.995262314968887e-01  1.883119463260107e+04 -1.973142180438698e+01 
 2.018366363681569e-01  1.883119415102794e+04 -1.995990039021763e+01 
 2.041737944669537e-01  1.883119365823758e+04 -2.019102461544450e+01 
 2.065380155810538e-01  1.883119315396867e+04 -2.042482511449755e+01 
 2.089296130854048e-01  1.883119263795386e+04 -2.066133287651464e+01 
 2.113489039836655e-01  1.883119210991955e+04 -2.090057924944796e+01 
 2.137962089502241e-01  1.883119156958577e+04 -2.114259594421817e+01 
 2.162718523727029e-01  1.883119101666602e+04 -2.138741503891649e+01 
 2.187761623949562e-01  1.883119045086718e+04 -2.163506898305555e+01 
 2.213094709605647e-01  1.883118987188919e+04 -2.188559060186917e+01 
 2.238721138568350e-01  1.883118927942513e+04 -2.213901310066237e+01 
 2.264644307593070e-01  1.883118867316083e+04 -2.239537006921119e+01 
 2.290867652767784e-01  1.883118805277488e+04 -2.265469548621373e+01 
 2.317394649968489e-01  1.883118741793832e+04 -2.291702372379265e+01 
 2.344228815319933e-01  1.883118676831457e+04 -2.318238955204981e+01 
 2.371373705661667e-01  1.883118610355917e+04 -2.345082814367335e+01 
 2.398832919019502e-01  1.883118542331966e+04 -2.372237507859850e+01 
 2.426610095082428e-01  1.883118472723542e+04 -2.399706634872208e+01 
 2.454708915685043e-01  1.883118401493735e+04 -2.427493836267137e+01 
 2.483133105295583e-01  1.883118328604776e+04 -2.455602795062854e+01 
 2.511886431509593e-01  1.883118254018022e+04 -2.484037236921072e+01 
 2.540972705549318e-01  1.883118177693924e+04 -2.512800930640643e+01 
 2.570395782768877e-01  1.883118099592019e+04 -2.541897688656935e+01 
 2.600159563165286e-01  1.883118019670890e+04 -2.571331367546955e+01 
 2.630267991895396e-01  1.883117937888167e+04 -2.601105868540360e+01 
 2.660725059798824e-01  1.883117854200488e+04 -2.631225138036339e+01 
 2.691534803926930e-01  1.883117768563482e+04 -2.661693168126487e+01 
 2.722701308077927e-01  1.883117680931737e+04 -2.692513997123735e+01 
 2.754228703338182e-01  1.883117591258799e+04 -2.723691710097420e+01 
 2.786121168629786e-01  1.883117499497117e+04 -2.755230439414479e+01 
 2.818382931264470e-01  1.883117405598041e+04 -2.787134365286976e+01 
 2.851018267503926e-01  1.883117309511785e+04 -2.819407716325920e+01 
 2.884031503126623e-01  1.883117211187400e+04 -2.852054770101482e+01 
 2.917427014001184e-01  1.883117110572758e+04 -2.885079853709762e+01 
 2.951209226666404e-01  1.883117007614511e+04 -2.918487344346008e+01 
 2.985382618917978e-01  1.883116902258070e+04 -2.952281669884536e+01 
 3.019951720402035e-01  1.883116794447575e+04 -2.986467309465355e+01 
 3.054921113215532e-01  1.883116684125863e+04 -3.021048794087525e+01 
 3.090295432513610e-01  1.883116571234439e+04 -3.056030707209449e+01 
 3.126079367123975e-01  1.883116455713456e+04 -3.091417685356065e+01 
 3.162277660168400e-01  1.883116337501654e+04 -3.127214418733028e+01 
 3.198895109691419e-01  1.883116216536363e+04 -3.163425651848094e+01 
 3.235936569296304e-01  1.883116092753443e+04 -3.200056184139582e+01 
 3.273406948788404e-01  1.883115966087265e+04 -3.237110870612175e+01 
 3.311311214825934e-01  1.883115836470669e+04 -3.274594622480036e+01 
 3.349654391578300e-01  1.883115703834937e+04 -3.312512407817399e+01 
 3.388441561392049e-01  1.883115568109739e+04 -3.350869252216604e+01 
 3.427677865464528e-01  1.883115429223116e+04 -3.389670239453854e+01 
 3.467368504525341e-01  1.883115287101428e+04 -3.428920512162559e+01 
 3.507518739525705e-01  1.883115141669323e+04 -3.468625272514550e+01 
 3.548133892335780e-01  1.883114992849693e+04 -3.508789782909123e+01 
 3.589219346450078e-01  1.883114840563634e+04 -3.549419366670041e+01 
 3.630780547701040e-01  1.883114684730401e+04 -3.590519408750630e+01 
 3.672823004980874e-01  1.883114525267371e+04 -3.632095356447006e+01 
 3.715352290971753e-01  1.883114362090002e+04 -3.674152720119552e+01 
 3.758374042884470e-01  1.883114195111770e+04 -3.716697073922699e+01 
 3.801893963205641e-01  1.883114024244146e+04 -3.759734056543218e+01 
 3.845917820453566e-01  1.883113849396536e+04 -3.803269371946969e+01 
 3.890451449942837e-01  1.883113670476237e+04 -3.847308790134333e+01 
 3.935500754557806e-01  1.883113487388382e+04 -3.891858147904314e+01 
 3.981071705535005e-01  1.883113300035901e+04 -3.936923349627571e+01 
 4.027170343254624e-01  1.883113108319457e+04 -3.982510368028261e+01 
 4.073802778041161e-01  1.883112912137406e+04 -4.028625244975031e+01 
 4.120975190973337e-01  1.883112711385732e+04 -4.075274092281060e+01 
 4.168693834703389e-01  1.883112505957001e+04 -4.122463092509037e+01 
 4.216965034285858e-01  1.883112295744282e+04 -4.170198499807181e+01 
 4.265795188015963e-01  1.883112080635128e+04 -4.218486640711446e+01 
 4.315190768277690e-01  1.883111860515489e+04 -4.267333915000454e+01 
 4.365158322401698e-01  1.883111635268657e+04 -4.316746796538555e+01 
 4.415704473533164e-01  1.883111404775210e+04 -4.366731834133026e+01 
 4.466835921509670e-01  1.883111168912936e+04 -4.417295652401074e+01 
 4.518559443749264e-01  1.883110927556788e+04 -4.468444952646993e+01 
 4.570881896148791e-01  1.883110680578798e+04 -4.520186513749296e+01 
 4.623810213992645e-01  1.883110427848016e+04 -4.572527193058202e+01 
 4.677351412872024e-01  1.883110169230452e+04 -4.625473927303476e+01 
 4.731512589614848e-01  1.883109904588979e+04 -4.679033733512641e+01 
 4.786300923226428e-01  1.883109633783295e+04 -4.733213709940021e+01 
 4.841723675841038e-01  1.883109356669815e+04 -4.788021037006204e+01 
 4.897788193684507e-01  1.883109073101619e+04 -4.843462978248652e+01 
 4.954501908047949e-01  1.883108782928359e+04 -4.899546881283052e+01 
 5.011872336272770e-01  1.883108485996189e+04 -4.956280178775904e+01 
 5.069907082747092e-01  1.883108182147676e+04 -5.013670389428277e+01 
 5.128613839913697e-01  1.883107871221723e+04 -5.071725118970932e+01 
 5.188000389289661e-01  1.883107553053481e+04 -5.130452061170931e+01 
 5.248074602497776e-01  1.883107227474261e+04 -5.189858998849844e+01 
 5.308844442309935e-01  1.883106894311442e+04 -5.249953804913725e+01 
 5.370317963702579e-01  1.883106553388385e+04 -5.310744443394974e+01 
 5.432503314924385e-01  1.883106204524339e+04 -5.372238970506198e+01 
 5.495408738576300e-01  1.883105847534341e+04 -5.434445535706243e+01 
 5.559042572704090e-01  1.883105482229116e+04 -5.497372382778502e+01 
 5.623413251903546e-01  1.883105108414987e+04 -5.561027850921701e+01 
 5.688529308438471e-01  1.883104725893760e+04 -5.625420375853224e+01 
 5.754399373371627e-01  1.883104334462630e+04 -5.690558490925180e+01 
 5.821032177708773e-01  1.883103933914068e+04 -5.756450828253344e+01 
 5.888436553555949e-01  1.883103524035705e+04 -5.823106119859062e+01 
 5.956621435290165e-01  1.883103104610236e+04 -5.890533198824431e+01 
 6.025595860743639e-01  1.883102675415286e+04 -5.958741000460641e+01 
 6.095368972401755e-01  1.883102236223302e+04 -6.027738563489915e+01 
 6.165950018614885e-01  1.883101786801437e+04 -6.097535031241058e+01 
 6.237348354824257e-01  1.883101326911414e+04 -6.168139652858613e+01 
 6.309573444801998e-01  1.883100856309405e+04 -6.239561784526207e+01 
 6.382634861905554e-01  1.883100374745914e+04 -6.311810890703846e+01 
 6.456542290346623e-01  1.883099881965622e+04 -6.384896545379387e+01 
 6.531305526474792e-01  1.883099377707272e+04 -6.458828433334625e+01 
 6.606934480076030e-01  1.883098861703512e+04 -6.533616351425735e+01 
 6.683439175686218e-01  1.883098333680776e+04 -6.609270209878723e+01 
 6.760829753919890e-01  1.883097793359115e+04 -6.685800033599442e+01 
 6.839116472814367e-01  1.883097240452067e+04 -6.763215963499080e+01 
 6.918309709189440e-01  1.883096674666496e+04 -6.841528257834585e+01 
 6.998419960022811e-01  1.883096095702438e+04 -6.920747293564666e+01 
 7.079457843841457e-01  1.883095503252945e+04 -7.000883567721397e+01 
 7.161434102129099e-01  1.883094897003914e+04 -7.081947698797521e+01 
 7.244359600749981e-01  1.883094276632943e+04 -7.163950428142294e+01 
 7.328245331389123e-01  1.883093641813112e+04 -7.246902621410945e+01 
 7.413102413009258e-01  1.883092992206873e+04 -7.330815269955542e+01 
 7.498942093324643e-01  1.883092327469823e+04 -7.415699492307061e+01 
 7.585775750291924e-01  1.883091647249543e+04 -7.501566535637048e+01 
 7.673614893618278e-01  1.883090951185407e+04 -7.588427777243405e+01 
 7.762471166287007e-01  1.883090238908388e+04 -7.676294726053328e+01 
 7.852356346100809e-01  1.883089510040861e+04 -7.765179024143509e+01 
 7.943282347242908e-01  1.883088764196416e+04 -7.855092448277868e+01 
 8.035261221856267e-01  1.883088000979632e+04 -7.946046911462760e+01 
 8.128305161641088e-01  1.883087219985886e+04 -8.038054464520258e+01 
 8.222426499470809e-01  1.883086420801129e+04 -8.131127297679384e+01 
 8.317637711026808e-01  1.883085603001672e+04 -8.225277742185591e+01 
 8.413951416452051e-01  1.883084766153950e+04 -8.320518271928759e+01 
 8.511380382023866e-01  1.883083909814312e+04 -8.416861505089867e+01 
 8.609937521846110e-01  1.883083033528768e+04 -8.514320205806555e+01 
 8.709635899560912e-01  1.883082136832756e+04 -8.612907285857744e+01 
 8.810488730080249e-01  1.883081219250896e+04 -8.712635806367612e+01 
 8.912509381337566e-01  1.883080280296732e+04 -8.813518979529086e+01 
 9.015711376059681e-01  1.883079319472487e+04 -8.915570170347144e+01 
 9.120108393559211e-01  1.883078336268785e+04 -9.018802898401998e+01 
 9.225714271547747e-01  1.883077330164388e+04 -9.123230839632490e+01 
 9.332543007970028e-01  1.883076300624933e+04 -9.228867828130323e+01 
 9.440608762859353e-01  1.883075247106603e+04 -9.335727858003190e+01 
 9.549925860214480e-01  1.883074169049900e+04 -9.443825085162305e+01 
 9.660508789898257e-01  1.883073065883306e+04 -9.553173829227309e+01 
 9.772372209558232e-01  1.883071937021998e+04 -9.663788575404664e+01 
 9.885530946569516e-01  1.883070781867537e+04 -9.775683976397022e+01 
 1.000000000000013e+00  1.883069599807537e+04 -9.888874854334424e+01 
 1.011579454259912e+00  1.883068390215359e+04 -1.000337620272776e+02 
 1.023292992280768e+00  1.883067152449768e+04 -1.011920318844440e+02 
 1.035142166679358e+00  1.883065885854599e+04 -1.023637115370641e+02 
 1.047128548050914e+00  1.883064589758399e+04 -1.035489561811152e+02 
 1.059253725177303e+00  1.883063263474090e+04 -1.047479228067748e+02 
 1.071519305237621e+00  1.883061906298586e+04 -1.059607702190922e+02 
 1.083926914021218e+00  1.883060517512426e+04 -1.071876590589002e+02 
 1.096478196143200e+00  1.883059096378411e+04 -1.084287518238502e+02 
 1.109174815262416e+00  1.883057642145168e+04 -1.096842128902560e+02 
 1.122018454301979e+00  1.883056154040806e+04 -1.109542085340471e+02 
 1.135010815672331e+00  1.883054631276473e+04 -1.122389069531010e+02 
 1.148153621496899e+00  1.883053073044954e+04 -1.135384782892602e+02 
 1.161448613840359e+00  1.883051478520231e+04 -1.148530946507117e+02 
 1.174897554939546e+00  1.883049846857050e+04 -1.161829301346238e+02 
 1.188502227437035e+00  1.883048177190477e+04 -1.175281608500382e+02 
 1.202264434617430e+00  1.883046468635440e+04 -1.188889649410240e+02 
 1.216186000646385e+00  1.883044720286253e+04 -1.202655226100935e+02 
 1.230268770812399e+00  1.883042931216144e+04 -1.216580161418840e+02 
 1.244514611771403e+00  1.883041100475766e+04 -1.230666299269799e+02 
 1.258925411794185e+00  1.883039227096665e+04 -1.244915504866520e+02 
 1.273503081016680e+00  1.883037310084820e+04 -1.259329664965822e+02 
 1.288249551693153e+00  1.883035348424072e+04 -1.273910688121521e+02 
 1.303166778452319e+00  1.883033341074606e+04 -1.288660504933714e+02 
 1.318256738556427e+00  1.883031286972396e+04 -1.303581068302171e+02 
 1.333521432163344e+00  1.883029185028636e+04 -1.318674353682596e+02 
 1.348962882591674e+00  1.883027034129176e+04 -1.333942359345801e+02 
 1.364583136588945e+00  1.883024833133918e+04 -1.349387106639784e+02 
 1.380384264602906e+00  1.883022580875230e+04 -1.365010640253360e+02 
 1.396368361055959e+00  1.883020276161289e+04 -1.380815028489924e+02 
 1.412537544622776e+00  1.883017917769505e+04 -1.396802363529967e+02 
 1.428893958511125e+00  1.883015504449833e+04 -1.412974761710890e+02 
 1.445439770745950e+00  1.883013034923129e+04 -1.429334363802814e+02 
 1.462177174456741e+00  1.883010507880466e+04 -1.445883335288920e+02 
 1.479108388168231e+00  1.883007921982437e+04 -1.462623866648929e+02 
 1.496235656094457e+00  1.883005275857468e+04 -1.479558173644262e+02 
 1.513561248436232e+00  1.883002568105042e+04 -1.496688497614132e+02 
 1.531087461682054e+00  1.882999797289023e+04 -1.514017105759443e+02 
 1.548816618912506e+00  1.882996961940847e+04 -1.531546291445402e+02 
 1.566751070108174e+00  1.882994060557768e+04 -1.549278374499781e+02 
 1.584893192461139e+00  1.882991091602053e+04 -1.567215701516049e+02 
 1.603245390690067e+00  1.882988053500166e+04 -1.585360646159906e+02 
 1.621810097358956e+00  1.882984944640953e+04 -1.603715609477568e+02 
 1.640589773199566e+00  1.882981763378749e+04 -1.622283020215943e+02 
 1.659586907437588e+00  1.882978508026554e+04 -1.641065335129468e+02 
 1.678804018122588e+00  1.882975176859120e+04 -1.660065039307312e+02 
 1.698243652461772e+00  1.882971768111028e+04 -1.679284646495726e+02 
 1.717908387157617e+00  1.882968279974781e+04 -1.698726699423930e+02 
 1.737800828749404e+00  1.882964710603791e+04 -1.718393770142533e+02 
 1.757923613958722e+00  1.882961058105481e+04 -1.738288460347879e+02 
 1.778279410038953e+00  1.882957320544226e+04 -1.758413401727829e+02 
 1.798870915128818e+00  1.882953495939343e+04 -1.778771256302467e+02 
 1.819700858610014e+00  1.882949582263066e+04 -1.799364716768497e+02 
 1.840772001468987e+00  1.882945577443410e+04 -1.820196506856859e+02 
 1.862087136662899e+00  1.882941479357157e+04 -1.841269381675448e+02 
 1.883649089489833e+00  1.882937285832676e+04 -1.862586128074490e+02 
 1.905460717963280e+00  1.882932994646812e+04 -1.884149565004552e+02 
 1.927524913190969e+00  1.882928603527646e+04 -1.905962543890237e+02 
 1.949844599758079e+00  1.882924110147380e+04 -1.928027948988273e+02 
 1.972422736114888e+00  1.882919512125041e+04 -1.950348697769250e+02 
 1.995262314968914e+00  1.882914807023260e+04 -1.972927741291659e+02 
 2.018366363681596e+00  1.882909992350936e+04 -1.995768064592336e+02 
 2.041737944669565e+00  1.882905065555974e+04 -2.018872687060451e+02 
 2.065380155810566e+00  1.882900024027907e+04 -2.042244662836354e+02 
 2.089296130854076e+00  1.882894865094523e+04 -2.065887081202202e+02 
 2.113489039836684e+00  1.882889586024425e+04 -2.089803066989818e+02 
 2.137962089502270e+00  1.882884184019629e+04 -2.113995780971227e+02 
 2.162718523727059e+00  1.882878656217075e+04 -2.138468420272980e+02 
 2.187761623949592e+00  1.882872999690070e+04 -2.163224218795293e+02 
 2.213094709605677e+00  1.882867211440812e+04 -2.188266447615476e+02 
 2.238721138568380e+00  1.882861288401757e+04 -2.213598415415832e+02 
 2.264644307593100e+00  1.882855227436989e+04 -2.239223468916622e+02 
 2.290867652767814e+00  1.882849025334611e+04 -2.265144993292668e+02 
 2.317394649968521e+00  1.882842678808016e+04 -2.291366412615280e+02 
 2.344228815319965e+00  1.882836184497133e+04 -2.317891190299392e+02 
 2.371373705661699e+00  1.882829538960692e+04 -2.344722829533673e+02 
 2.398832919019534e+00  1.882822738677392e+04 -2.371864873736911e+02 
 2.426610095082460e+00  1.882815780047013e+04 -2.399320907019658e+02 
 2.454708915685075e+00  1.882808659381569e+04 -2.427094554625718e+02 
 2.483133105295616e+00  1.882801372911284e+04 -2.455189483416035e+02 
 2.511886431509626e+00  1.882793916775689e+04 -2.483609402319794e+02 
 2.540972705549352e+00  1.882786287024527e+04 -2.512358062815570e+02 
 2.570395782768911e+00  1.882778479618656e+04 -2.541439259418112e+02 
 2.600159563165320e+00  1.882770490420983e+04 -2.570856830143655e+02 
