 frequency              ad_real                ad_imag               
 1.000000000000000e+00  4.007291763853545e+04 -1.131719709491444e+02 
 1.011579454259899e+00  4.007291022376313e+04 -1.144824195128889e+02 
 1.023292992280754e+00  4.007290260569335e+04 -1.158080414376517e+02 
 1.035142166679344e+00  4.007289479523303e+04 -1.171490124798399e+02 
 1.047128548050900e+00  4.007288683308677e+04 -1.185055106097731e+02 
 1.059253725177289e+00  4.007287865524170e+04 -1.198777152409291e+02 
 1.071519305237607e+00  4.007287031715346e+04 -1.212658085746230e+02 
 1.083926914021204e+00  4.007286176955578e+04 -1.226699742928251e+02 
 1.096478196143186e+00  4.007285302286277e+04 -1.240903985642277e+02 
 1.109174815262402e+00  4.007284407243704e+04 -1.255272696217565e+02 
 1.122018454301964e+00  4.007283492847909e+04 -1.269807779713345e+02 
 1.135010815672316e+00  4.007282554129555e+04 -1.284511159440349e+02 
 1.148153621496884e+00  4.007281595075491e+04 -1.299384786680741e+02 
 1.161448613840344e+00  4.007280612188084e+04 -1.314430630499370e+02 
 1.174897554939531e+00  4.007279609430757e+04 -1.329650687637323e+02 
 1.188502227437020e+00  4.007278581787340e+04 -1.345046972029937e+02 
 1.202264434617414e+00  4.007277528713003e+04 -1.360621523856439e+02 
 1.216186000646369e+00  4.007276454133951e+04 -1.376376409988702e+02 
 1.230268770812383e+00  4.007275352995945e+04 -1.392313715089068e+02 
 1.244514611771387e+00  4.007274224715195e+04 -1.408435550988929e+02 
 1.258925411794169e+00  4.007273073178023e+04 -1.424744057148115e+02 
 1.273503081016663e+00  4.007271893289407e+04 -1.441241391438373e+02 
 1.288249551693136e+00  4.007270687412939e+04 -1.457929742031792e+02 
 1.303166778452301e+00  4.007269448930242e+04 -1.474811315893799e+02 
 1.318256738556409e+00  4.007268184659125e+04 -1.491888355389724e+02 
 1.333521432163326e+00  4.007266892434740e+04 -1.509163122268071e+02 
 1.348962882591656e+00  4.007265568582070e+04 -1.526637903272420e+02 
 1.364583136588927e+00  4.007264213893814e+04 -1.544315014980266e+02 
 1.380384264602887e+00  4.007262826157206e+04 -1.562196798483732e+02 
 1.396368361055940e+00  4.007261407626425e+04 -1.580285625455334e+02 
 1.412537544622757e+00  4.007259957549414e+04 -1.598583892706391e+02 
 1.428893958511106e+00  4.007258472167488e+04 -1.617094022364140e+02 
 1.445439770745931e+00  4.007256950693158e+04 -1.635818466937931e+02 
 1.462177174456721e+00  4.007255396804254e+04 -1.654759711010993e+02 
 1.479108388168211e+00  4.007253805192508e+04 -1.673920260549100e+02 
 1.496235656094437e+00  4.007252178003220e+04 -1.693302656693643e+02 
 1.513561248436212e+00  4.007250509889288e+04 -1.712909463682081e+02 
 1.531087461682034e+00  4.007248804450785e+04 -1.732743283038422e+02 
 1.548816618912485e+00  4.007247059289020e+04 -1.752806741284940e+02 
 1.566751070108153e+00  4.007245271984248e+04 -1.773102495280849e+02 
 1.584893192461118e+00  4.007243446073340e+04 -1.793633237924811e+02 
 1.603245390690046e+00  4.007241576103878e+04 -1.814401685282759e+02 
 1.621810097358934e+00  4.007239662579037e+04 -1.835410590173955e+02 
 1.640589773199544e+00  4.007237702989837e+04 -1.856662734534403e+02 
 1.659586907437565e+00  4.007235700781796e+04 -1.878160938033060e+02 
 1.678804018122565e+00  4.007233650409071e+04 -1.899908044593045e+02 
 1.698243652461749e+00  4.007231552279201e+04 -1.921906936618934e+02 
 1.717908387157593e+00  4.007229403785361e+04 -1.944160526995170e+02 
 1.737800828749381e+00  4.007227209767426e+04 -1.966671769584430e+02 
 1.757923613958698e+00  4.007224961588076e+04 -1.989443639252902e+02 
 1.778279410038929e+00  4.007222658055485e+04 -2.012479152521282e+02 
 1.798870915128794e+00  4.007220305422629e+04 -2.035781368381246e+02 
 1.819700858609990e+00  4.007217896463453e+04 -2.059353367638251e+02 
 1.840772001468962e+00  4.007215431395406e+04 -2.083198274279665e+02 
 1.862087136662874e+00  4.007212907417187e+04 -2.107319245322161e+02 
 1.883649089489807e+00  4.007210327675065e+04 -2.131719480591846e+02 
 1.905460717963254e+00  4.007207686317160e+04 -2.156402207426904e+02 
 1.927524913190943e+00  4.007204983437730e+04 -2.181370696820643e+02 
 1.949844599758053e+00  4.007202217603923e+04 -2.206628255990395e+02 
 1.972422736114861e+00  4.007199387349525e+04 -2.232178230391022e+02 
 1.995262314968888e+00  4.007196491174171e+04 -2.258024004151397e+02 
 2.018366363681569e+00  4.007193527542561e+04 -2.284169000517311e+02 
 2.041737944669538e+00  4.007190496378117e+04 -2.310616684033448e+02 
 2.065380155810538e+00  4.007187391589770e+04 -2.337370552374481e+02 
 2.089296130854049e+00  4.007184216015878e+04 -2.364434154045622e+02 
 2.113489039836656e+00  4.007180967973042e+04 -2.391811073394882e+02 
 2.137962089502242e+00  4.007177642749745e+04 -2.419504932587403e+02 
 2.162718523727030e+00  4.007174240077760e+04 -2.447519401003410e+02 
 2.187761623949563e+00  4.007170758153345e+04 -2.475858188643268e+02 
 2.213094709605648e+00  4.007167195130756e+04 -2.504525048380946e+02 
 2.238721138568351e+00  4.007163547626820e+04 -2.533523774564696e+02 
 2.264644307593071e+00  4.007159816697734e+04 -2.562858211057690e+02 
 2.290867652767784e+00  4.007156000365777e+04 -2.592532242400329e+02 
 2.317394649968490e+00  4.007152092123871e+04 -2.622549792144269e+02 
 2.344228815319934e+00  4.007148092890022e+04 -2.652914838862894e+02 
 2.371373705661667e+00  4.007144000545125e+04 -2.683631403223253e+02 
 2.398832919019502e+00  4.007139814415159e+04 -2.714703554367500e+02 
 2.426610095082428e+00  4.007135532281167e+04 -2.746135406456178e+02 
 2.454708915685043e+00  4.007131147389302e+04 -2.777931114962288e+02 
 2.483133105295583e+00  4.007126661899338e+04 -2.810094895710874e+02 
 2.511886431509593e+00  4.007122070444885e+04 -2.842631002833602e+02 
 2.540972705549319e+00  4.007117376570610e+04 -2.875543752315158e+02 
 2.570395782768878e+00  4.007112567326157e+04 -2.908837486404140e+02 
 2.600159563165286e+00  4.007107652119125e+04 -2.942516629894284e+02 
 2.630267991895396e+00  4.007102619376311e+04 -2.976585628189548e+02 
 2.660725059798824e+00  4.007097469418944e+04 -3.011048995524685e+02 
 2.691534803926931e+00  4.007092201011732e+04 -3.045911296136882e+02 
 2.722701308077928e+00  4.007086803889631e+04 -3.081177133235606e+02 
 2.754228703338182e+00  4.007081287149320e+04 -3.116851192995490e+02 
 2.786121168629787e+00  4.007075641888531e+04 -3.152938188097233e+02 
 2.818382931264471e+00  4.007069862125694e+04 -3.189442890053421e+02 
 2.851018267503926e+00  4.007063949281293e+04 -3.226370137301779e+02 
 2.884031503126623e+00  4.007057898727120e+04 -3.263724814630520e+02 
 2.917427014001185e+00  4.007051707256350e+04 -3.301511865567782e+02 
 2.951209226666404e+00  4.007045374576137e+04 -3.339736295663835e+02 
 2.985382618917978e+00  4.007038889857024e+04 -3.378403150744103e+02 
 3.019951720402035e+00  4.007032254145939e+04 -3.417517554805324e+02 
 3.054921113215533e+00  4.007025468409729e+04 -3.457084691204394e+02 
 3.090295432513610e+00  4.007018518590446e+04 -3.497109777269125e+02 
 3.126079367123975e+00  4.007011409972209e+04 -3.537598124168120e+02 
 3.162277660168400e+00  4.007004137293361e+04 -3.578555086176497e+02 
 3.198895109691419e+00  4.006996692216057e+04 -3.619986073810753e+02 
 3.235936569296304e+00  4.006989076772582e+04 -3.661896578814472e+02 
 3.273406948788404e+00  4.006981283937796e+04 -3.704292140032685e+02 
 3.311311214825934e+00  4.006973306592664e+04 -3.747178359965216e+02 
 3.349654391578300e+00  4.006965146487440e+04 -3.790560922459757e+02 
 3.388441561392050e+00  4.006956791825893e+04 -3.834445551514908e+02 
 3.427677865464528e+00  4.006948247147587e+04 -3.878838068415197e+02 
 3.467368504525342e+00  4.006939501946872e+04 -3.923744332850933e+02 
 3.507518739525706e+00  4.006930553083780e+04 -3.969170286420333e+02 
 3.548133892335781e+00  4.006921394322092e+04 -4.015121933269018e+02 
 3.589219346450079e+00  4.006912025291925e+04 -4.061605358718243e+02 
 3.630780547701041e+00  4.006902436545401e+04 -4.108626700091756e+02 
 3.672823004980875e+00  4.006892624495785e+04 -4.156192177463091e+02 
 3.715352290971754e+00  4.006882585438055e+04 -4.204308082629070e+02 
 3.758374042884471e+00  4.006872309569649e+04 -4.252980767238201e+02 
 3.801893963205642e+00  4.006861795929003e+04 -4.302216674965111e+02 
 3.845917820453566e+00  4.006851037451324e+04 -4.352022310992014e+02 
 3.890451449942837e+00  4.006840029930398e+04 -4.402404261807373e+02 
 3.935500754557806e+00  4.006828761556950e+04 -4.453369173194233e+02 
 3.981071705535005e+00  4.006817233832718e+04 -4.504923797148543e+02 
 4.027170343254624e+00  4.006805440650054e+04 -4.557074946922381e+02 
 4.073802778041161e+00  4.006793365300956e+04 -4.609829490050732e+02 
 4.120975190973336e+00  4.006781014836697e+04 -4.663194427842442e+02 
 4.168693834703389e+00  4.006768373749166e+04 -4.717176790403244e+02 
 4.216965034285859e+00  4.006755439824254e+04 -4.771783719947119e+02 
 4.265795188015963e+00  4.006742204715968e+04 -4.827022426728697e+02 
 4.315190768277690e+00  4.006728662906883e+04 -4.882900211018041e+02 
 4.365158322401698e+00  4.006714804234545e+04 -4.939424446017131e+02 
 4.415704473533165e+00  4.006700622851506e+04 -4.996602600540321e+02 
 4.466835921509672e+00  4.006686111245542e+04 -5.054442225534910e+02 
 4.518559443749265e+00  4.006671261729668e+04 -5.112950958635820e+02 
 4.570881896148792e+00  4.006656066438081e+04 -5.172136525157556e+02 
 4.623810213992646e+00  4.006640518815859e+04 -5.232006742977467e+02 
 4.677351412872025e+00  4.006624606145406e+04 -5.292569504021581e+02 
 4.731512589614849e+00  4.006608324480725e+04 -5.353832814294485e+02 
 4.786300923226428e+00  4.006591663704337e+04 -5.415804755897419e+02 
 4.841723675841039e+00  4.006574616485842e+04 -5.478493511620126e+02 
 4.897788193684509e+00  4.006557169314442e+04 -5.541907341685302e+02 
 4.954501908047950e+00  4.006539320419568e+04 -5.606054633997549e+02 
 5.011872336272772e+00  4.006521049890625e+04 -5.670943822557726e+02 
 5.069907082747093e+00  4.006502358509628e+04 -5.736583496851586e+02 
 5.128613839913699e+00  4.006483228908796e+04 -5.802982293838181e+02 
 5.188000389289662e+00  4.006463658427224e+04 -5.870148992411173e+02 
 5.248074602497778e+00  4.006443623257027e+04 -5.938092410705392e+02 
 5.308844442309936e+00  4.006423129222525e+04 -6.006821555985496e+02 
 5.370317963702581e+00  4.006402155015679e+04 -6.076345458709648e+02 
 5.432503314924387e+00  4.006380695506081e+04 -6.146673301937030e+02 
 5.495408738576301e+00  4.006358733356370e+04 -6.217814337279510e+02 
 5.559042572704092e+00  4.006336262913585e+04 -6.289777958977245e+02 
 5.623413251903548e+00  4.006313267799577e+04 -6.362573636057010e+02 
 5.688529308438473e+00  4.006289737333819e+04 -6.436210964434929e+02 
 5.754399373371629e+00  4.006265659059235e+04 -6.510699644902299e+02 
 5.821032177708775e+00  4.006241021722618e+04 -6.586049493929630e+02 
 5.888436553555951e+00  4.006215809294205e+04 -6.662270425281749e+02 
 5.956621435290167e+00  4.006190008428042e+04 -6.739372475517548e+02 
 6.025595860743641e+00  4.006163608454657e+04 -6.817365805852437e+02 
 6.095368972401756e+00  4.006136593907082e+04 -6.896260678241389e+02 
 6.165950018614887e+00  4.006108953473551e+04 -6.976067487039745e+02 
 6.237348354824259e+00  4.006080660577427e+04 -7.056796692743391e+02 
 6.309573444802000e+00  4.006051716674019e+04 -7.138458974651439e+02 
 6.382634861905555e+00  4.006022097485479e+04 -7.221065044115005e+02 
 6.456542290346625e+00  4.005991788830810e+04 -7.304625771376980e+02 
 6.531305526474794e+00  4.005960774671640e+04 -7.389152144996106e+02 
 6.606934480076032e+00  4.005929040090085e+04 -7.474655284040280e+02 
 6.683439175686219e+00  4.005896566800856e+04 -7.561146422844195e+02 
 6.760829753919892e+00  4.005863334635767e+04 -7.648636917468265e+02 
 6.839116472814369e+00  4.005829328999697e+04 -7.737138275578903e+02 
 6.918309709189442e+00  4.005794536381822e+04 -7.826662141677477e+02 
 6.998419960022813e+00  4.005758929417188e+04 -7.917220239834915e+02 
 7.079457843841459e+00  4.005722492257056e+04 -8.008824473584618e+02 
 7.161434102129101e+00  4.005685210107829e+04 -8.101486887804228e+02 
 7.244359600749983e+00  4.005647061756949e+04 -8.195219639989980e+02 
 7.328245331389125e+00  4.005608024041507e+04 -8.290035018861449e+02 
 7.413102413009261e+00  4.005568077808537e+04 -8.385945470517589e+02 
 7.498942093324645e+00  4.005527201933041e+04 -8.482963575680631e+02 
 7.585775750291926e+00  4.005485376292279e+04 -8.581102063657704e+02 
 7.673614893618280e+00  4.005442575784095e+04 -8.680373788339461e+02 
 7.762471166287009e+00  4.005398777778406e+04 -8.780791761364181e+02 
 7.852356346100811e+00  4.005353960612444e+04 -8.882369147776694e+02 
 7.943282347242909e+00  4.005308100593604e+04 -8.985119254590420e+02 
 8.035261221856269e+00  4.005261176464260e+04 -9.089055552300308e+02 
 8.128305161641091e+00  4.005213158942638e+04 -9.194191629285244e+02 
 8.222426499470812e+00  4.005164025633309e+04 -9.300541260785465e+02 
 8.317637711026812e+00  4.005113747583124e+04 -9.408118349369068e+02 
 8.413951416452054e+00  4.005062299713437e+04 -9.516936974617001e+02 
 8.511380382023869e+00  4.005009651853103e+04 -9.627011352935785e+02 
 8.609937521846113e+00  4.004955782152964e+04 -9.738355903296274e+02 
 8.709635899560915e+00  4.004900659166463e+04 -9.850985163302785e+02 
 8.810488730080252e+00  4.004844253771452e+04 -9.964913847764982e+02 
 8.912509381337568e+00  4.004786537662541e+04 -1.008015684376020e+03 
 9.015711376059683e+00  4.004727477368333e+04 -1.019672918232437e+03 
 9.120108393559214e+00  4.004667040203111e+04 -1.031464606965356e+03 
 9.225714271547750e+00  4.004605198724983e+04 -1.043392291260664e+03 
 9.332543007970031e+00  4.004541923260281e+04 -1.055457528286757e+03 
 9.440608762859357e+00  4.004477171446710e+04 -1.067661886259009e+03 
 9.549925860214485e+00  4.004410916554870e+04 -1.080006959548912e+03 
 9.660508789898261e+00  4.004343120623096e+04 -1.092494354706070e+03 
 9.772372209558236e+00  4.004273741897945e+04 -1.105125694434782e+03 
 9.885530946569521e+00  4.004202755692265e+04 -1.117902629344716e+03 
 1.000000000000014e+01  4.004130117084990e+04 -1.130826817630136e+03 
 1.011579454259912e+01  4.004055789235333e+04 -1.143899940833117e+03 
 1.023292992280768e+01  4.003979729942424e+04 -1.157123696552974e+03 
 1.035142166679358e+01  4.003901906534202e+04 -1.170499807207897e+03 
 1.047128548050914e+01  4.003822270501396e+04 -1.184030005571400e+03 
 1.059253725177304e+01  4.003740787293037e+04 -1.197716052309157e+03 
 1.071519305237621e+01  4.003657407970118e+04 -1.211559719517135e+03 
 1.083926914021219e+01  4.003572084091748e+04 -1.225562799589444e+03 
 1.096478196143201e+01  4.003484782595313e+04 -1.239727114689363e+03 
 1.109174815262417e+01  4.003395448511864e+04 -1.254054494163875e+03 
 1.122018454301980e+01  4.003304043692673e+04 -1.268546798568561e+03 
 1.135010815672332e+01  4.003210503567914e+04 -1.283205892777397e+03 
 1.148153621496900e+01  4.003114796727504e+04 -1.298033683937949e+03 
 1.161448613840360e+01  4.003016863801022e+04 -1.313032082821020e+03 
 1.174897554939547e+01  4.002916651704485e+04 -1.328203025781139e+03 
 1.188502227437036e+01  4.002814115100610e+04 -1.343548476226740e+03 
 1.202264434617431e+01  4.002709192536522e+04 -1.359070408969059e+03 
 1.216186000646386e+01  4.002601834719415e+04 -1.374770829295246e+03 
 1.230268770812400e+01  4.002491979165794e+04 -1.390651756087992e+03 
 1.244514611771404e+01  4.002379572513782e+04 -1.406715237266294e+03 
 1.258925411794186e+01  4.002264557088200e+04 -1.422963340864838e+03 
 1.273503081016681e+01  4.002146861938306e+04 -1.439398148681036e+03 
 1.288249551693154e+01  4.002026437052228e+04 -1.456021780933331e+03 
 1.303166778452319e+01  4.001903216100851e+04 -1.472836369957404e+03 
 1.318256738556427e+01  4.001777129807909e+04 -1.489844069776642e+03 
 1.333521432163345e+01  4.001648114847203e+04 -1.507047062973713e+03 
 1.348962882591675e+01  4.001516103388066e+04 -1.524447553260847e+03 
 1.364583136588946e+01  4.001381029013990e+04 -1.542047770149810e+03 
 1.380384264602906e+01  4.001242814782924e+04 -1.559849959989616e+03 
 1.396368361055960e+01  4.001101392535330e+04 -1.577856401050831e+03 
 1.412537544622777e+01  4.000956685001474e+04 -1.596069389926324e+03 
 1.428893958511125e+01  4.000808617666230e+04 -1.614491251017032e+03 
 1.445439770745950e+01  4.000657115753515e+04 -1.633124334503359e+03 
 1.462177174456741e+01  4.000502095263705e+04 -1.651971009238116e+03 
 1.479108388168231e+01  4.000343474832125e+04 -1.671033672547056e+03 
 1.496235656094458e+01  4.000181177171653e+04 -1.690314751901788e+03 
 1.513561248436233e+01  4.000015106729857e+04 -1.709816686305912e+03 
 1.531087461682055e+01  3.999845185326443e+04 -1.729541956605646e+03 
 1.548816618912507e+01  3.999671319403165e+04 -1.749493057975288e+03 
 1.566751070108175e+01  3.999493419303688e+04 -1.769672516581345e+03 
 1.584893192461140e+01  3.999311393280853e+04 -1.790082884743330e+03 
 1.603245390690068e+01  3.999125144478593e+04 -1.810726738427963e+03 
 1.621810097358957e+01  3.998934573856251e+04 -1.831606680024973e+03 
 1.640589773199567e+01  3.998739581624597e+04 -1.852725339899434e+03 
 1.659586907437589e+01  3.998540071648788e+04 -1.874085380855511e+03 
 1.678804018122589e+01  3.998335932092908e+04 -1.895689480292981e+03 
 1.698243652461773e+01  3.998127062096099e+04 -1.917540355359558e+03 
 1.717908387157618e+01  3.997913344994393e+04 -1.939640737880058e+03 
 1.737800828749405e+01  3.997694677954185e+04 -1.961993402991778e+03 
 1.757923613958723e+01  3.997470940746729e+04 -1.984601139228151e+03 
 1.778279410038954e+01  3.997242016470575e+04 -2.007466768764661e+03 
 1.798870915128819e+01  3.997007788522009e+04 -2.030593144901311e+03 
 1.819700858610015e+01  3.996768130152885e+04 -2.053983141709743e+03 
 1.840772001468988e+01  3.996522920724656e+04 -2.077639670763951e+03 
 1.862087136662900e+01  3.996272033779761e+04 -2.101565669315629e+03 
 1.883649089489834e+01  3.996015332534776e+04 -2.125764095537233e+03 
 1.905460717963281e+01  3.995752687603264e+04 -2.150237947416279e+03 
 1.927524913190970e+01  3.995483957661153e+04 -2.174990242500188e+03 
 1.949844599758080e+01  3.995209008642307e+04 -2.200024038769115e+03 
 1.972422736114889e+01  3.994927695889424e+04 -2.225342415555355e+03 
 1.995262314968916e+01  3.994639867052177e+04 -2.250948476563349e+03 
 2.018366363681598e+01  3.994345379781918e+04 -2.276845370021633e+03 
 2.041737944669567e+01  3.994044073527197e+04 -2.303036257136106e+03 
 2.065380155810567e+01  3.993735800544210e+04 -2.329524347604924e+03 
 2.089296130854078e+01  3.993420394740165e+04 -2.356312864017221e+03 
 2.113489039836686e+01  3.993097693793866e+04 -2.383405067544044e+03 
 2.137962089502272e+01  3.992767531675196e+04 -2.410804249576494e+03 
 2.162718523727061e+01  3.992429734129754e+04 -2.438513726372705e+03 
 2.187761623949594e+01  3.992084125989644e+04 -2.466536847994756e+03 
 2.213094709605679e+01  3.991730534039441e+04 -2.494877002294420e+03 
 2.238721138568382e+01  3.991368770676728e+04 -2.523537594773189e+03 
 2.264644307593103e+01  3.990998644172817e+04 -2.552522061174749e+03 
 2.290867652767817e+01  3.990619968915125e+04 -2.581833880940604e+03 
 2.317394649968523e+01  3.990232546118258e+04 -2.611476552795472e+03 
 2.344228815319967e+01  3.989836179969697e+04 -2.641453615690803e+03 
 2.371373705661701e+01  3.989430662776616e+04 -2.671768629530417e+03 
 2.398832919019537e+01  3.989015783724960e+04 -2.702425186662550e+03 
 2.426610095082463e+01  3.988591327304371e+04 -2.733426909946276e+03 
 2.454708915685078e+01  3.988157082046698e+04 -2.764777465035721e+03 
 2.483133105295619e+01  3.987712819789389e+04 -2.796480531993413e+03 
 2.511886431509629e+01  3.987258311784844e+04 -2.828539827397996e+03 
 2.540972705549355e+01  3.986793321227125e+04 -2.860959094015819e+03 
 2.570395782768914e+01  3.986317613446437e+04 -2.893742115514497e+03 
 2.600159563165323e+01  3.985830941077808e+04 -2.926892695261000e+03 
