 frequency              input_noise_VrtHz      output_noise_VrtHz    
 1.000000000000000e-02  9.399694248252163e-06  3.766761778255050e-01 
 1.023292992280754e-02  9.285456463056536e-06  3.720982999477777e-01 
 1.047128548050899e-02  9.172622852643991e-06  3.675766918991383e-01 
 1.071519305237606e-02  9.061175987166751e-06  3.631106552091548e-01 
 1.096478196143185e-02  8.951098654897392e-06  3.586995001481839e-01 
 1.122018454301963e-02  8.842373859479085e-06  3.543425456171789e-01 
 1.148153621496882e-02  8.734984817214297e-06  3.500391190390393e-01 
 1.174897554939529e-02  8.628914954386511e-06  3.457885562512835e-01 
 1.202264434617412e-02  8.524147904616929e-06  3.415902014001231e-01 
 1.230268770812381e-02  8.420667506252084e-06  3.374434068357764e-01 
 1.258925411794167e-02  8.318457799788491e-06  3.333475330092656e-01 
 1.288249551693134e-02  8.217503025325920e-06  3.293019483703611e-01 
 1.318256738556407e-02  8.117787620055397e-06  3.253060292669179e-01 
 1.348962882591653e-02  8.019296215777913e-06  3.213591598454420e-01 
 1.380384264602884e-02  7.922013636455439e-06  3.174607319529512e-01 
 1.412537544622754e-02  7.825924895791382e-06  3.136101450400173e-01 
 1.445439770745927e-02  7.731015194843337e-06  3.098068060650998e-01 
 1.479108388168207e-02  7.637269919664380e-06  3.060501294000267e-01 
 1.513561248436207e-02  7.544674638976272e-06  3.023395367367503e-01 
 1.548816618912481e-02  7.453215101870853e-06  2.986744569952356e-01 
 1.584893192461113e-02  7.362877235538342e-06  2.950543262324267e-01 
 1.621810097358929e-02  7.273647143029658e-06  2.914785875525739e-01 
 1.659586907437560e-02  7.185511101042433e-06  2.879466910185133e-01 
 1.698243652461744e-02  7.098455557735983e-06  2.844580934580102e-01 
 1.737800828749375e-02  7.012467130575707e-06  2.810122589078540e-01 
 1.778279410038922e-02  6.927532604203124e-06  2.776086574675489e-01 
 1.819700858609983e-02  6.843638928332806e-06  2.742467662759926e-01 
 1.862087136662867e-02  6.760773215676854e-06  2.709260687967769e-01 
 1.905460717963246e-02  6.678922739894580e-06  2.676460553473625e-01 
 1.949844599758044e-02  6.598074933569127e-06  2.644062219088949e-01 
 1.995262314968879e-02  6.518217386208970e-06  2.612060714522624e-01 
 2.041737944669528e-02  6.439337842274525e-06  2.580451128547225e-01 
 2.089296130854039e-02  6.361424199231021e-06  2.549228609348588e-01 
 2.137962089502231e-02  6.284464505623661e-06  2.518388367626638e-01 
 2.187761623949552e-02  6.208446959179411e-06  2.487925675718272e-01 
 2.238721138568339e-02  6.133359904931234e-06  2.457835862149915e-01 
 2.290867652767772e-02  6.059191833367754e-06  2.428114314687579e-01 
 2.344228815319921e-02  5.985931378603281e-06  2.398756478652727e-01 
 2.398832919019489e-02  5.913567316574474e-06  2.369757856199624e-01 
 2.454708915685028e-02  5.842088563257345e-06  2.341114005600829e-01 
 2.511886431509578e-02  5.771484172908060e-06  2.312820540542230e-01 
 2.570395782768862e-02  5.701743336325287e-06  2.284873129426705e-01 
 2.630267991895379e-02  5.632855379134500e-06  2.257267494686593e-01 
 2.691534803926913e-02  5.564809760094317e-06  2.229999412936715e-01 
 2.754228703338164e-02  5.497596069424839e-06  2.203064710145834e-01 
 2.818382931264451e-02  5.431204027154551e-06  2.176459269291509e-01 
 2.884031503126603e-02  5.365623481492457e-06  2.150179021390451e-01 
 2.951209226666382e-02  5.300844407215605e-06  2.124219949803284e-01 
 3.019951720402013e-02  5.236856904081715e-06  2.098578085588024e-01 
 3.090295432513587e-02  5.173651195258268e-06  2.073249510879778e-01 
 3.162277660168375e-02  5.111217625773750e-06  2.048230358174462e-01 
 3.235936569296278e-02  5.049546660987086e-06  2.023516805849708e-01 
 3.311311214825906e-02  4.988628885077634e-06  1.999105081426658e-01 
 3.388441561392020e-02  4.928454999553010e-06  1.974991456461216e-01 
 3.467368504525311e-02  4.869015821776008e-06  1.951172254137618e-01 
 3.548133892335749e-02  4.810302283510983e-06  1.927643838310058e-01 
 3.630780547701008e-02  4.752305429487829e-06  1.904402621048139e-01 
 3.715352290971719e-02  4.695016415983848e-06  1.881445058385499e-01 
 3.801893963205605e-02  4.638426509424323e-06  1.858767650495616e-01 
 3.890451449942799e-02  4.582527085000803e-06  1.836366941138122e-01 
 3.981071705534966e-02  4.527309625304990e-06  1.814239517111352e-01 
 4.073802778041120e-02  4.472765718982628e-06  1.792382007712914e-01 
 4.168693834703347e-02  4.418887059401915e-06  1.770791084206076e-01 
 4.265795188015920e-02  4.365665443341132e-06  1.749463459293865e-01 
 4.365158322401652e-02  4.313092769690020e-06  1.728395886598650e-01 
 4.466835921509623e-02  4.261161038170241e-06  1.707585160149403e-01 
 4.570881896148742e-02  4.209862348069649e-06  1.687028113874476e-01 
 4.677351412871973e-02  4.159188896994777e-06  1.666721621101676e-01 
 4.786300923226374e-02  4.109132979637239e-06  1.646662594063930e-01 
 4.897788193684452e-02  4.059686986556572e-06  1.626847983411523e-01 
 5.011872336272712e-02  4.010843402978253e-06  1.607274777730430e-01 
 5.128613839913638e-02  3.962594807606952e-06  1.587940003066740e-01 
 5.248074602497715e-02  3.914933871454202e-06  1.568840722456871e-01 
 5.370317963702516e-02  3.867853356682682e-06  1.549974035464432e-01 
 5.495408738576234e-02  3.821346115461277e-06  1.531337077721413e-01 
 5.623413251903479e-02  3.775405088840066e-06  1.512927019913064e-01 
 5.754399373371557e-02  3.730023305634031e-06  1.494741070151981e-01 
 5.888436553555877e-02  3.685193881324213e-06  1.476776467894937e-01 
 6.025595860743563e-02  3.640910016971898e-06  1.459030488606399e-01 
 6.165950018614807e-02  3.597164998146085e-06  1.441500443765864e-01 
 6.309573444801918e-02  3.553952193865064e-06  1.424183672877987e-01 
 6.456542290346540e-02  3.511265055550251e-06  1.407077553871562e-01 
 6.606934480075945e-02  3.469097115995133e-06  1.390179494589030e-01 
 6.760829753919802e-02  3.427441988345369e-06  1.373486935610161e-01 
 6.918309709189348e-02  3.386293365092433e-06  1.356997349311125e-01 
 7.079457843841361e-02  3.345645017080176e-06  1.340708239466394e-01 
 7.244359600749882e-02  3.305490792523449e-06  1.324617140361423e-01 
 7.413102413009155e-02  3.265824616039886e-06  1.308721618874889e-01 
 7.585775750291818e-02  3.226640487692571e-06  1.293019268672319e-01 
 7.762471166286897e-02  3.187932482045946e-06  1.277507717656022e-01 
 7.943282347242793e-02  3.149694747233408e-06  1.262184618386962e-01 
 8.128305161640970e-02  3.111921504035862e-06  1.247047655443136e-01 
 8.317637711026686e-02  3.074607044972855e-06  1.232094542586890e-01 
 8.511380382023739e-02  3.037745733404837e-06  1.217323020108175e-01 
 8.709635899560780e-02  3.001332002646067e-06  1.202730858616529e-01 
 8.912509381337429e-02  2.965360355090541e-06  1.188315853679751e-01 
 9.120108393559070e-02  2.929825361346284e-06  1.174075830017282e-01 
 9.332543007969883e-02  2.894721659382513e-06  1.160008638888291e-01 
 9.549925860214331e-02  2.860043953687031e-06  1.146112158208045e-01 
 9.772372209558078e-02  2.825787014434332e-06  1.132384292214541e-01 
 9.999999999999970e-02  2.791945676663475e-06  1.118822970721759e-01 
 1.023292992280751e-01  2.758514839467417e-06  1.105426150468962e-01 
 1.047128548050896e-01  2.725489465191395e-06  1.092191812280662e-01 
 1.071519305237603e-01  2.692864578642613e-06  1.079117962836672e-01 
 1.096478196143182e-01  2.660635266308915e-06  1.066202632321905e-01 
 1.122018454301960e-01  2.628796675587294e-06  1.053443876153707e-01 
 1.148153621496879e-01  2.597344014023339e-06  1.040839774628909e-01 
 1.174897554939526e-01  2.566272548558434e-06  1.028388431041471e-01 
 1.202264434617409e-01  2.535577604787860e-06  1.016087971432187e-01 
 1.230268770812377e-01  2.505254566228149e-06  1.003936545838165e-01 
 1.258925411794163e-01  2.475298873591913e-06  9.919323283263232e-02 
 1.288249551693130e-01  2.445706024074417e-06  9.800735129857260e-02 
 1.318256738556403e-01  2.416471570647444e-06  9.683583188555757e-02 
 1.348962882591649e-01  2.387591121362037e-06  9.567849859240242e-02 
 1.380384264602880e-01  2.359060338661091e-06  9.453517752708426e-02 
 1.412537544622749e-01  2.330874938699396e-06  9.340569702305709e-02 
 1.445439770745922e-01  2.303030690673118e-06  9.228988764253912e-02 
 1.479108388168202e-01  2.275523416156855e-06  9.118758180367406e-02 
 1.513561248436203e-01  2.248348988450167e-06  9.009861427277556e-02 
 1.548816618912476e-01  2.221503331931097e-06  8.902282162412556e-02 
 1.584893192461108e-01  2.194982421418958e-06  8.796004258938173e-02 
 1.621810097358924e-01  2.168782281544032e-06  8.691011782985157e-02 
 1.659586907437555e-01  2.142898986126106e-06  8.587289010767386e-02 
 1.698243652461738e-01  2.117328657560348e-06  8.484820390541066e-02 
 1.737800828749369e-01  2.092067466211251e-06  8.383590588414255e-02 
 1.778279410038916e-01  2.067111629813442e-06  8.283584431912830e-02 
 1.819700858609977e-01  2.042457412880998e-06  8.184786970343934e-02 
 1.862087136662861e-01  2.018101126123512e-06  8.087183410105171e-02 
 1.905460717963240e-01  1.994039125870025e-06  7.990759143824444e-02 
 1.949844599758038e-01  1.970267813499367e-06  7.895499762610332e-02 
 1.995262314968872e-01  1.946783634878755e-06  7.801391012004727e-02 
 2.041737944669521e-01  1.923583079808328e-06  7.708418837161554e-02 
 2.089296130854031e-01  1.900662681473706e-06  7.616569333813317e-02 
 2.137962089502223e-01  1.878019015904466e-06  7.525828789575424e-02 
 2.187761623949543e-01  1.855648701440419e-06  7.436183650112130e-02 
 2.238721138568330e-01  1.833548398203519e-06  7.347620534135917e-02 
 2.290867652767763e-01  1.811714807577212e-06  7.260126217451418e-02 
 2.344228815319912e-01  1.790144671692159e-06  7.173687647435652e-02 
 2.398832919019480e-01  1.768834772918093e-06  7.088291927297291e-02 
 2.454708915685020e-01  1.747781933362398e-06  7.003926327447202e-02 
 2.511886431509570e-01  1.726983014374711e-06  6.920578270137094e-02 
 2.570395782768853e-01  1.706434916058173e-06  6.838235327815530e-02 
 2.630267991895371e-01  1.686134576786473e-06  6.756885234096521e-02 
 2.691534803926904e-01  1.666078972726762e-06  6.676515871430024e-02 
 2.754228703338155e-01  1.646265117369288e-06  6.597115269368592e-02 
 2.818382931264442e-01  1.626690061061905e-06  6.518671615004740e-02 
 2.884031503126593e-01  1.607350890551582e-06  6.441173224125576e-02 
 2.951209226666373e-01  1.588244728530523e-06  6.364608576011369e-02 
 3.019951720402003e-01  1.569368733189122e-06  6.288966275317309e-02 
 3.090295432513577e-01  1.550720097773407e-06  6.214235074466658e-02 
 3.162277660168365e-01  1.532296050148849e-06  6.140403869189255e-02 
 3.235936569296268e-01  1.514093852369386e-06  6.067461687470323e-02 
 3.311311214825896e-01  1.496110800251723e-06  5.995397685883676e-02 
 3.388441561392009e-01  1.478344222955123e-06  5.924201168192116e-02 
 3.467368504525300e-01  1.460791482566567e-06  5.853861561054870e-02 
 3.548133892335738e-01  1.443449973690668e-06  5.784368425856562e-02 
 3.630780547700996e-01  1.426317123045601e-06  5.715711444037734e-02 
 3.715352290971707e-01  1.409390389063022e-06  5.647880437065658e-02 
 3.801893963205594e-01  1.392667261493577e-06  5.580865343279148e-02 
 3.890451449942787e-01  1.376145261017783e-06  5.514656227116195e-02 
 3.981071705534953e-01  1.359821938860783e-06  5.449243275412585e-02 
 4.073802778041107e-01  1.343694876412686e-06  5.384616795880331e-02 
 4.168693834703334e-01  1.327761684853519e-06  5.320767217589080e-02 
 4.265795188015906e-01  1.312020004782724e-06  5.257685081519681e-02 
 4.365158322401638e-01  1.296467505853597e-06  5.195361049139244e-02 
 4.466835921509609e-01  1.281101886411424e-06  5.133785900715580e-02 
 4.570881896148728e-01  1.265920873137825e-06  5.072950524204562e-02 
 4.677351412871959e-01  1.250922220697717e-06  5.012845923525214e-02 
 4.786300923226360e-01  1.236103711392200e-06  4.953463205859276e-02 
 4.897788193684438e-01  1.221463154814431e-06  4.894793600794162e-02 
 5.011872336272698e-01  1.206998387511121e-06  4.836828432945568e-02 
 5.128613839913623e-01  1.192707272647503e-06  4.779559140981827e-02 
 5.248074602497700e-01  1.178587699676548e-06  4.722977267060593e-02 
 5.370317963702500e-01  1.164637584012477e-06  4.667074455627080e-02 
 5.495408738576217e-01  1.150854866708271e-06  4.611842460824957e-02 
 5.623413251903462e-01  1.137237514137581e-06  4.557273131213965e-02 
 5.754399373371539e-01  1.123783517680026e-06  4.503358408918071e-02 
 5.888436553555859e-01  1.110490893410636e-06  4.450090352012281e-02 
 6.025595860743546e-01  1.097357681793626e-06  4.397461109339906e-02 
 6.165950018614789e-01  1.084381947379333e-06  4.345462919697599e-02 
 6.309573444801898e-01  1.071561778505508e-06  4.294088122234591e-02 
 6.456542290346520e-01  1.058895287001898e-06  4.243329153394988e-02 
 6.606934480075923e-01  1.046380607898763e-06  4.193178537742654e-02 
 6.760829753919780e-01  1.034015899139304e-06  4.143628894817517e-02 
 6.918309709189326e-01  1.021799341294955e-06  4.094672928646277e-02 
 7.079457843841339e-01  1.009729137284907e-06  4.046303442072684e-02 
 7.244359600749859e-01  9.978035120991084e-07  3.998513321683885e-02 
 7.413102413009133e-01  9.860207125241196e-07  3.951295538455821e-02 
 7.585775750291794e-01  9.743790068731504e-07  3.904643152670258e-02 
 7.762471166286873e-01  9.628766847189589e-07  3.858549314107057e-02 
 7.943282347242769e-01  9.515120566304873e-07  3.813007246512148e-02 
 8.128305161640945e-01  9.402834539123550e-07  3.768010268227118e-02 
 8.317637711026662e-01  9.291892283479096e-07  3.723551769656024e-02 
 8.511380382023715e-01  9.182277519456218e-07  3.679625227926413e-02 
 8.709635899560756e-01  9.073974166881282e-07  3.636224200128677e-02 
 8.912509381337403e-01  8.966966342848361e-07  3.593342318305468e-02 
 9.120108393559044e-01  8.861238359277970e-07  3.550973295333904e-02 
 9.332543007969856e-01  8.756774720499315e-07  3.509110922487427e-02 
 9.549925860214303e-01  8.653560120869346e-07  3.467749068404026e-02 
 9.772372209558049e-01  8.551579442420445e-07  3.426881669121767e-02 
 9.999999999999940e-01  8.450817752533726e-07  3.386502742758087e-02 
 1.023292992280748e+00  8.351260301644296e-07  3.346606381895022e-02 
 1.047128548050893e+00  8.252892520978380e-07  3.307186741500488e-02 
 1.071519305237600e+00  8.155700020311088e-07  3.268238056899801e-02 
 1.096478196143178e+00  8.059668585758833e-07  3.229754631537808e-02 
 1.122018454301957e+00  7.964784177595095e-07  3.191730839819441e-02 
 1.148153621496876e+00  7.871032928097223e-07  3.154161120294038e-02 
 1.174897554939522e+00  7.778401139418170e-07  3.117039986705926e-02 
 1.202264434617406e+00  7.686875281482217e-07  3.080362014097314e-02 
 1.230268770812374e+00  7.596441989912981e-07  3.044121849673674e-02 
 1.258925411794160e+00  7.507088063981507e-07  3.008314199301410e-02 
 1.288249551693126e+00  7.418800464583936e-07  2.972933839294210e-02 
 1.318256738556399e+00  7.331566312242499e-07  2.937975603226849e-02 
 1.348962882591645e+00  7.245372885130908e-07  2.903434398858826e-02 
 1.380384264602876e+00  7.160207617126936e-07  2.869305184237024e-02 
 1.412537544622746e+00  7.076058095886712e-07  2.835582988775604e-02 
 1.445439770745919e+00  6.992912060945617e-07  2.802262894159518e-02 
 1.479108388168198e+00  6.910757401838180e-07  2.769340050613173e-02 
 1.513561248436199e+00  6.829582156248561e-07  2.736809660355835e-02 
 1.548816618912471e+00  6.749374508177541e-07  2.704666988387636e-02 
 1.584893192461103e+00  6.670122786136240e-07  2.672907356538801e-02 
 1.621810097358920e+00  6.591815461360259e-07  2.641526143797925e-02 
 1.659586907437550e+00  6.514441146048814e-07  2.610518785605078e-02 
 1.698243652461733e+00  6.437988591622150e-07  2.579880773152190e-02 
 1.737800828749364e+00  6.362446687003003e-07  2.549607653643935e-02 
 1.778279410038911e+00  6.287804456920470e-07  2.519695023922319e-02 
 1.819700858609971e+00  6.214051060231857e-07  2.490138544000652e-02 
 1.862087136662855e+00  6.141175788269083e-07  2.460933916574865e-02 
 1.905460717963235e+00  6.069168063201657e-07  2.432076905107276e-02 
 1.949844599758032e+00  5.998017436425746e-07  2.403563318351343e-02 
 1.995262314968866e+00  5.927713586965347e-07  2.375389019827448e-02 
 2.041737944669515e+00  5.858246319902570e-07  2.347549923478483e-02 
 2.089296130854025e+00  5.789605564819689e-07  2.320041989583868e-02 
 2.137962089502217e+00  5.721781374265460e-07  2.292861233753697e-02 
 2.187761623949537e+00  5.654763922237786e-07  2.266003714132740e-02 
 2.238721138568323e+00  5.588543502687573e-07  2.239465539502451e-02 
 2.290867652767756e+00  5.523110528039235e-07  2.213242868535764e-02 
 2.344228815319905e+00  5.458455527730353e-07  2.187331900091195e-02 
 2.398832919019473e+00  5.394569146771465e-07  2.161728886724932e-02 
 2.454708915685012e+00  5.331442144319248e-07  2.136430123328088e-02 
 2.511886431509561e+00  5.269065392272028e-07  2.111431948327498e-02 
 2.570395782768844e+00  5.207429873880775e-07  2.086730747888315e-02 
 2.630267991895362e+00  5.146526682377340e-07  2.062322951331740e-02 
 2.691534803926895e+00  5.086347019620148e-07  2.038205028356391e-02 
 2.754228703338145e+00  5.026882194757159e-07  2.014373492434992e-02 
 2.818382931264432e+00  4.968123622903897e-07  1.990824904689565e-02 
 2.884031503126584e+00  4.910062823839603e-07  1.967555862786997e-02 
 2.951209226666363e+00  4.852691420719926e-07  1.944563008702993e-02 
 3.019951720401993e+00  4.796001138803280e-07  1.921843019436079e-02 
 3.090295432513567e+00  4.739983804195773e-07  1.899392621005859e-02 
 3.162277660168355e+00  4.684631342609735e-07  1.877208574147866e-02 
 3.235936569296257e+00  4.629935778138789e-07  1.855287678262921e-02 
 3.311311214825885e+00  4.575889232048219e-07  1.833626773703578e-02 
 3.388441561391999e+00  4.522483921579606e-07  1.812222737790463e-02 
 3.467368504525289e+00  4.469712158771176e-07  1.791072488423358e-02 
 3.548133892335727e+00  4.417566349291981e-07  1.770172976191408e-02 
 3.630780547700985e+00  4.366038991291737e-07  1.749521193967434e-02 
 3.715352290971696e+00  4.315122674263429e-07  1.729114167111882e-02 
 3.801893963205582e+00  4.264810077922058e-07  1.708948957072380e-02 
 3.890451449942775e+00  4.215093971094509e-07  1.689022664711837e-02 
 3.981071705534941e+00  4.165967210627283e-07  1.669332420305810e-02 
 4.073802778041094e+00  4.117422740303083e-07  1.649875394508693e-02 
 4.168693834703320e+00  4.069453589774680e-07  1.630648789688941e-02 
 4.265795188015892e+00  4.022052873510448e-07  1.611649841449568e-02 
 4.365158322401624e+00  3.975213789752731e-07  1.592875820022382e-02 
 4.466835921509595e+00  3.928929619489808e-07  1.574324026844937e-02 
 4.570881896148713e+00  3.883193725440659e-07  1.555991797732832e-02 
 4.677351412871944e+00  3.837999551051639e-07  1.537876500074701e-02 
 4.786300923226344e+00  3.793340619506934e-07  1.519975533030488e-02 
 4.897788193684422e+00  3.749210532748918e-07  1.502286327132476e-02 
 5.011872336272681e+00  3.705602970514408e-07  1.484806343892448e-02 
 5.128613839913606e+00  3.662511689378531e-07  1.467533075411674e-02 
 5.248074602497682e+00  3.619930521814747e-07  1.450464042915396e-02 
 5.370317963702482e+00  3.577853375262659e-07  1.433596800711440e-02 
 5.495408738576200e+00  3.536274231210971e-07  1.416928929286798e-02 
 5.623413251903443e+00  3.495187144288251e-07  1.400458039822598e-02 
 5.754399373371521e+00  3.454586241368004e-07  1.384181770637969e-02 
 5.888436553555840e+00  3.414465720684010e-07  1.368097790488723e-02 
 6.025595860743526e+00  3.374819850955175e-07  1.352203793550127e-02 
 6.165950018614769e+00  3.335642970522932e-07  1.336497505688436e-02 
 6.309573444801878e+00  3.296929486499572e-07  1.320976673533204e-02 
 6.456542290346500e+00  3.258673873924766e-07  1.305639078622624e-02 
 6.606934480075903e+00  3.220870674936059e-07  1.290482524093124e-02 
 6.760829753919760e+00  3.183514497945930e-07  1.275504839379771e-02 
