 frequency       psrrp_real      psrrp_imag     
 1.00000000e+00  1.76625590e-01 -7.25875765e-04 
 1.01157945e+00  1.76625519e-01 -7.34280709e-04 
 1.02329299e+00  1.76625446e-01 -7.42782967e-04 
 1.03514217e+00  1.76625372e-01 -7.51383666e-04 
 1.04712855e+00  1.76625296e-01 -7.60083945e-04 
 1.05925373e+00  1.76625218e-01 -7.68884956e-04 
 1.07151931e+00  1.76625138e-01 -7.77787866e-04 
 1.08392691e+00  1.76625057e-01 -7.86793854e-04 
 1.09647820e+00  1.76624974e-01 -7.95904114e-04 
 1.10917482e+00  1.76624888e-01 -8.05119852e-04 
 1.12201845e+00  1.76624801e-01 -8.14442290e-04 
 1.13501082e+00  1.76624712e-01 -8.23872661e-04 
 1.14815362e+00  1.76624620e-01 -8.33412217e-04 
 1.16144861e+00  1.76624527e-01 -8.43062219e-04 
 1.17489755e+00  1.76624431e-01 -8.52823948e-04 
 1.18850223e+00  1.76624333e-01 -8.62698695e-04 
 1.20226443e+00  1.76624233e-01 -8.72687769e-04 
 1.21618600e+00  1.76624130e-01 -8.82792494e-04 
 1.23026877e+00  1.76624025e-01 -8.93014207e-04 
 1.24451461e+00  1.76623918e-01 -9.03354263e-04 
 1.25892541e+00  1.76623808e-01 -9.13814032e-04 
 1.27350308e+00  1.76623695e-01 -9.24394899e-04 
 1.28824955e+00  1.76623580e-01 -9.35098265e-04 
 1.30316678e+00  1.76623463e-01 -9.45925549e-04 
 1.31825674e+00  1.76623342e-01 -9.56878183e-04 
 1.33352143e+00  1.76623219e-01 -9.67957620e-04 
 1.34896288e+00  1.76623093e-01 -9.79165327e-04 
 1.36458314e+00  1.76622963e-01 -9.90502788e-04 
 1.38038426e+00  1.76622831e-01 -1.00197150e-03 
 1.39636836e+00  1.76622696e-01 -1.01357299e-03 
 1.41253754e+00  1.76622558e-01 -1.02530880e-03 
 1.42889396e+00  1.76622416e-01 -1.03718046e-03 
 1.44543977e+00  1.76622271e-01 -1.04918957e-03 
 1.46217717e+00  1.76622123e-01 -1.06133770e-03 
 1.47910839e+00  1.76621971e-01 -1.07362647e-03 
 1.49623566e+00  1.76621816e-01 -1.08605750e-03 
 1.51356125e+00  1.76621657e-01 -1.09863245e-03 
 1.53108746e+00  1.76621495e-01 -1.11135297e-03 
 1.54881662e+00  1.76621328e-01 -1.12422075e-03 
 1.56675107e+00  1.76621158e-01 -1.13723749e-03 
 1.58489319e+00  1.76620984e-01 -1.15040492e-03 
 1.60324539e+00  1.76620806e-01 -1.16372478e-03 
 1.62181010e+00  1.76620623e-01 -1.17719884e-03 
 1.64058977e+00  1.76620437e-01 -1.19082888e-03 
 1.65958691e+00  1.76620246e-01 -1.20461669e-03 
 1.67880402e+00  1.76620050e-01 -1.21856412e-03 
 1.69824365e+00  1.76619850e-01 -1.23267300e-03 
 1.71790839e+00  1.76619646e-01 -1.24694521e-03 
 1.73780083e+00  1.76619436e-01 -1.26138263e-03 
 1.75792361e+00  1.76619222e-01 -1.27598717e-03 
 1.77827941e+00  1.76619003e-01 -1.29076077e-03 
 1.79887092e+00  1.76618778e-01 -1.30570538e-03 
 1.81970086e+00  1.76618549e-01 -1.32082298e-03 
 1.84077200e+00  1.76618314e-01 -1.33611557e-03 
 1.86208714e+00  1.76618073e-01 -1.35158518e-03 
 1.88364909e+00  1.76617827e-01 -1.36723386e-03 
 1.90546072e+00  1.76617576e-01 -1.38306367e-03 
 1.92752491e+00  1.76617318e-01 -1.39907670e-03 
 1.94984460e+00  1.76617054e-01 -1.41527509e-03 
 1.97242274e+00  1.76616785e-01 -1.43166097e-03 
 1.99526231e+00  1.76616509e-01 -1.44823651e-03 
 2.01836636e+00  1.76616226e-01 -1.46500391e-03 
 2.04173794e+00  1.76615937e-01 -1.48196538e-03 
 2.06538016e+00  1.76615641e-01 -1.49912316e-03 
 2.08929613e+00  1.76615339e-01 -1.51647954e-03 
 2.11348904e+00  1.76615029e-01 -1.53403680e-03 
 2.13796209e+00  1.76614712e-01 -1.55179726e-03 
 2.16271852e+00  1.76614388e-01 -1.56976328e-03 
 2.18776162e+00  1.76614056e-01 -1.58793724e-03 
 2.21309471e+00  1.76613716e-01 -1.60632153e-03 
 2.23872114e+00  1.76613369e-01 -1.62491859e-03 
 2.26464431e+00  1.76613013e-01 -1.64373088e-03 
 2.29086765e+00  1.76612649e-01 -1.66276089e-03 
 2.31739465e+00  1.76612277e-01 -1.68201113e-03 
 2.34422882e+00  1.76611896e-01 -1.70148415e-03 
 2.37137371e+00  1.76611506e-01 -1.72118253e-03 
 2.39883292e+00  1.76611107e-01 -1.74110887e-03 
 2.42661010e+00  1.76610699e-01 -1.76126580e-03 
 2.45470892e+00  1.76610281e-01 -1.78165600e-03 
 2.48313311e+00  1.76609853e-01 -1.80228214e-03 
 2.51188643e+00  1.76609416e-01 -1.82314698e-03 
 2.54097271e+00  1.76608968e-01 -1.84425325e-03 
 2.57039578e+00  1.76608510e-01 -1.86560375e-03 
 2.60015956e+00  1.76608041e-01 -1.88720131e-03 
 2.63026799e+00  1.76607562e-01 -1.90904878e-03 
 2.66072506e+00  1.76607071e-01 -1.93114904e-03 
 2.69153480e+00  1.76606569e-01 -1.95350502e-03 
 2.72270131e+00  1.76606055e-01 -1.97611967e-03 
 2.75422870e+00  1.76605529e-01 -1.99899597e-03 
 2.78612117e+00  1.76604991e-01 -2.02213696e-03 
 2.81838293e+00  1.76604440e-01 -2.04554569e-03 
 2.85101827e+00  1.76603876e-01 -2.06922525e-03 
 2.88403150e+00  1.76603300e-01 -2.09317877e-03 
 2.91742701e+00  1.76602710e-01 -2.11740941e-03 
 2.95120923e+00  1.76602106e-01 -2.14192038e-03 
 2.98538262e+00  1.76601488e-01 -2.16671491e-03 
 3.01995172e+00  1.76600856e-01 -2.19179627e-03 
 3.05492111e+00  1.76600209e-01 -2.21716778e-03 
 3.09029543e+00  1.76599547e-01 -2.24283279e-03 
 3.12607937e+00  1.76598869e-01 -2.26879468e-03 
 3.16227766e+00  1.76598176e-01 -2.29505688e-03 
 3.19889511e+00  1.76597467e-01 -2.32162286e-03 
 3.23593657e+00  1.76596741e-01 -2.34849613e-03 
 3.27340695e+00  1.76595998e-01 -2.37568023e-03 
 3.31131121e+00  1.76595238e-01 -2.40317875e-03 
 3.34965439e+00  1.76594460e-01 -2.43099531e-03 
 3.38844156e+00  1.76593664e-01 -2.45913359e-03 
 3.42767787e+00  1.76592850e-01 -2.48759730e-03 
 3.46736850e+00  1.76592016e-01 -2.51639019e-03 
 3.50751874e+00  1.76591164e-01 -2.54551606e-03 
 3.54813389e+00  1.76590291e-01 -2.57497875e-03 
 3.58921935e+00  1.76589398e-01 -2.60478215e-03 
 3.63078055e+00  1.76588484e-01 -2.63493018e-03 
 3.67282300e+00  1.76587549e-01 -2.66542682e-03 
 3.71535229e+00  1.76586592e-01 -2.69627609e-03 
 3.75837404e+00  1.76585613e-01 -2.72748205e-03 
 3.80189396e+00  1.76584611e-01 -2.75904882e-03 
 3.84591782e+00  1.76583586e-01 -2.79098055e-03 
 3.89045145e+00  1.76582537e-01 -2.82328145e-03 
 3.93550075e+00  1.76581464e-01 -2.85595578e-03 
 3.98107171e+00  1.76580365e-01 -2.88900783e-03 
 4.02717034e+00  1.76579241e-01 -2.92244197e-03 
 4.07380278e+00  1.76578091e-01 -2.95626259e-03 
 4.12097519e+00  1.76576914e-01 -2.99047414e-03 
 4.16869383e+00  1.76575709e-01 -3.02508112e-03 
 4.21696503e+00  1.76574477e-01 -3.06008810e-03 
 4.26579519e+00  1.76573216e-01 -3.09549967e-03 
 4.31519077e+00  1.76571925e-01 -3.13132050e-03 
 4.36515832e+00  1.76570605e-01 -3.16755529e-03 
 4.41570447e+00  1.76569254e-01 -3.20420880e-03 
 4.46683592e+00  1.76567871e-01 -3.24128587e-03 
 4.51855944e+00  1.76566456e-01 -3.27879136e-03 
 4.57088190e+00  1.76565008e-01 -3.31673020e-03 
 4.62381021e+00  1.76563527e-01 -3.35510738e-03 
 4.67735141e+00  1.76562011e-01 -3.39392793e-03 
 4.73151259e+00  1.76560459e-01 -3.43319695e-03 
 4.78630092e+00  1.76558872e-01 -3.47291961e-03 
 4.84172368e+00  1.76557248e-01 -3.51310112e-03 
 4.89778819e+00  1.76555585e-01 -3.55374675e-03 
 4.95450191e+00  1.76553885e-01 -3.59486183e-03 
 5.01187234e+00  1.76552144e-01 -3.63645176e-03 
 5.06990708e+00  1.76550363e-01 -3.67852199e-03 
 5.12861384e+00  1.76548541e-01 -3.72107804e-03 
 5.18800039e+00  1.76546676e-01 -3.76412549e-03 
 5.24807460e+00  1.76544768e-01 -3.80766998e-03 
 5.30884444e+00  1.76542815e-01 -3.85171721e-03 
 5.37031796e+00  1.76540817e-01 -3.89627296e-03 
 5.43250331e+00  1.76538773e-01 -3.94134306e-03 
 5.49540874e+00  1.76536681e-01 -3.98693341e-03 
 5.55904257e+00  1.76534540e-01 -4.03304998e-03 
 5.62341325e+00  1.76532349e-01 -4.07969879e-03 
 5.68852931e+00  1.76530108e-01 -4.12688596e-03 
 5.75439937e+00  1.76527814e-01 -4.17461766e-03 
 5.82103218e+00  1.76525467e-01 -4.22290011e-03 
 5.88843655e+00  1.76523066e-01 -4.27173964e-03 
 5.95662144e+00  1.76520608e-01 -4.32114261e-03 
 6.02559586e+00  1.76518093e-01 -4.37111549e-03 
 6.09536897e+00  1.76515520e-01 -4.42166479e-03 
 6.16595002e+00  1.76512887e-01 -4.47279712e-03 
 6.23734835e+00  1.76510193e-01 -4.52451914e-03 
 6.30957344e+00  1.76507436e-01 -4.57683759e-03 
 6.38263486e+00  1.76504615e-01 -4.62975930e-03 
 6.45654229e+00  1.76501728e-01 -4.68329116e-03 
 6.53130553e+00  1.76498774e-01 -4.73744015e-03 
 6.60693448e+00  1.76495752e-01 -4.79221331e-03 
 6.68343918e+00  1.76492659e-01 -4.84761777e-03 
 6.76082975e+00  1.76489494e-01 -4.90366073e-03 
 6.83911647e+00  1.76486256e-01 -4.96034950e-03 
 6.91830971e+00  1.76482942e-01 -5.01769142e-03 
 6.99841996e+00  1.76479551e-01 -5.07569395e-03 
 7.07945784e+00  1.76476082e-01 -5.13436463e-03 
 7.16143410e+00  1.76472531e-01 -5.19371106e-03 
 7.24435960e+00  1.76468899e-01 -5.25374095e-03 
 7.32824533e+00  1.76465181e-01 -5.31446207e-03 
 7.41310241e+00  1.76461378e-01 -5.37588230e-03 
 7.49894209e+00  1.76457486e-01 -5.43800959e-03 
 7.58577575e+00  1.76453503e-01 -5.50085198e-03 
 7.67361489e+00  1.76449428e-01 -5.56441760e-03 
 7.76247117e+00  1.76445258e-01 -5.62871466e-03 
 7.85235635e+00  1.76440991e-01 -5.69375149e-03 
 7.94328235e+00  1.76436625e-01 -5.75953647e-03 
 8.03526122e+00  1.76432158e-01 -5.82607810e-03 
 8.12830516e+00  1.76427587e-01 -5.89338496e-03 
 8.22242650e+00  1.76422909e-01 -5.96146573e-03 
 8.31763771e+00  1.76418123e-01 -6.03032917e-03 
 8.41395142e+00  1.76413226e-01 -6.09998414e-03 
 8.51138038e+00  1.76408214e-01 -6.17043962e-03 
 8.60993752e+00  1.76403087e-01 -6.24170465e-03 
 8.70963590e+00  1.76397840e-01 -6.31378840e-03 
 8.81048873e+00  1.76392472e-01 -6.38670011e-03 
 8.91250938e+00  1.76386978e-01 -6.46044913e-03 
 9.01571138e+00  1.76381357e-01 -6.53504491e-03 
 9.12010839e+00  1.76375606e-01 -6.61049702e-03 
 9.22571427e+00  1.76369721e-01 -6.68681510e-03 
 9.33254301e+00  1.76363699e-01 -6.76400891e-03 
 9.44060876e+00  1.76357538e-01 -6.84208831e-03 
 9.54992586e+00  1.76351233e-01 -6.92106326e-03 
 9.66050879e+00  1.76344782e-01 -7.00094384e-03 
 9.77237221e+00  1.76338181e-01 -7.08174023e-03 
 9.88553095e+00  1.76331428e-01 -7.16346270e-03 
 1.00000000e+01  1.76324517e-01 -7.24612164e-03 
 1.01157945e+01  1.76317446e-01 -7.32972757e-03 
 1.02329299e+01  1.76310211e-01 -7.41429108e-03 
 1.03514217e+01  1.76302807e-01 -7.49982289e-03 
 1.04712855e+01  1.76295233e-01 -7.58633385e-03 
 1.05925373e+01  1.76287482e-01 -7.67383489e-03 
 1.07151931e+01  1.76279551e-01 -7.76233706e-03 
 1.08392691e+01  1.76271437e-01 -7.85185154e-03 
 1.09647820e+01  1.76263134e-01 -7.94238962e-03 
 1.10917482e+01  1.76254639e-01 -8.03396268e-03 
 1.12201845e+01  1.76245947e-01 -8.12658226e-03 
 1.13501082e+01  1.76237053e-01 -8.22025998e-03 
 1.14815362e+01  1.76227953e-01 -8.31500759e-03 
 1.16144861e+01  1.76218642e-01 -8.41083697e-03 
 1.17489755e+01  1.76209115e-01 -8.50776010e-03 
 1.18850223e+01  1.76199368e-01 -8.60578910e-03 
 1.20226443e+01  1.76189394e-01 -8.70493618e-03 
 1.21618600e+01  1.76179189e-01 -8.80521371e-03 
 1.23026877e+01  1.76168748e-01 -8.90663416e-03 
 1.24451461e+01  1.76158065e-01 -9.00921013e-03 
 1.25892541e+01  1.76147135e-01 -9.11295433e-03 
 1.27350308e+01  1.76135951e-01 -9.21787961e-03 
 1.28824955e+01  1.76124508e-01 -9.32399895e-03 
 1.30316678e+01  1.76112801e-01 -9.43132543e-03 
 1.31825674e+01  1.76100822e-01 -9.53987229e-03 
 1.33352143e+01  1.76088566e-01 -9.64965286e-03 
 1.34896288e+01  1.76076026e-01 -9.76068063e-03 
 1.36458314e+01  1.76063197e-01 -9.87296920e-03 
 1.38038426e+01  1.76050070e-01 -9.98653231e-03 
 1.39636836e+01  1.76036639e-01 -1.01013838e-02 
 1.41253754e+01  1.76022898e-01 -1.02175377e-02 
 1.42889396e+01  1.76008839e-01 -1.03350081e-02 
 1.44543977e+01  1.75994455e-01 -1.04538092e-02 
 1.46217717e+01  1.75979739e-01 -1.05739555e-02 
 1.47910839e+01  1.75964682e-01 -1.06954615e-02 
 1.49623566e+01  1.75949277e-01 -1.08183417e-02 
 1.51356125e+01  1.75933517e-01 -1.09426110e-02 
 1.53108746e+01  1.75917392e-01 -1.10682843e-02 
 1.54881662e+01  1.75900895e-01 -1.11953766e-02 
 1.56675107e+01  1.75884016e-01 -1.13239031e-02 
 1.58489319e+01  1.75866748e-01 -1.14538791e-02 
 1.60324539e+01  1.75849082e-01 -1.15853200e-02 
 1.62181010e+01  1.75831007e-01 -1.17182414e-02 
 1.64058977e+01  1.75812516e-01 -1.18526590e-02 
 1.65958691e+01  1.75793598e-01 -1.19885886e-02 
 1.67880402e+01  1.75774243e-01 -1.21260462e-02 
 1.69824365e+01  1.75754442e-01 -1.22650479e-02 
 1.71790839e+01  1.75734185e-01 -1.24056099e-02 
 1.73780083e+01  1.75713461e-01 -1.25477486e-02 
 1.75792361e+01  1.75692259e-01 -1.26914804e-02 
 1.77827941e+01  1.75670569e-01 -1.28368220e-02 
 1.79887092e+01  1.75648379e-01 -1.29837901e-02 
 1.81970086e+01  1.75625678e-01 -1.31324016e-02 
 1.84077200e+01  1.75602455e-01 -1.32826735e-02 
 1.86208714e+01  1.75578697e-01 -1.34346229e-02 
 1.88364909e+01  1.75554393e-01 -1.35882670e-02 
 1.90546072e+01  1.75529530e-01 -1.37436234e-02 
 1.92752491e+01  1.75504095e-01 -1.39007094e-02 
 1.94984460e+01  1.75478075e-01 -1.40595427e-02 
 1.97242274e+01  1.75451458e-01 -1.42201411e-02 
 1.99526231e+01  1.75424228e-01 -1.43825224e-02 
 2.01836636e+01  1.75396374e-01 -1.45467046e-02 
 2.04173794e+01  1.75367880e-01 -1.47127058e-02 
 2.06538016e+01  1.75338732e-01 -1.48805442e-02 
 2.08929613e+01  1.75308916e-01 -1.50502383e-02 
 2.11348904e+01  1.75278416e-01 -1.52218064e-02 
 2.13796209e+01  1.75247216e-01 -1.53952670e-02 
 2.16271852e+01  1.75215302e-01 -1.55706390e-02 
 2.18776162e+01  1.75182656e-01 -1.57479410e-02 
 2.21309471e+01  1.75149263e-01 -1.59271919e-02 
 2.23872114e+01  1.75115106e-01 -1.61084106e-02 
 2.26464431e+01  1.75080167e-01 -1.62916164e-02 
 2.29086765e+01  1.75044429e-01 -1.64768283e-02 
 2.31739465e+01  1.75007873e-01 -1.66640656e-02 
 2.34422882e+01  1.74970483e-01 -1.68533476e-02 
 2.37137371e+01  1.74932238e-01 -1.70446939e-02 
 2.39883292e+01  1.74893121e-01 -1.72381238e-02 
 2.42661010e+01  1.74853110e-01 -1.74336570e-02 
 2.45470892e+01  1.74812187e-01 -1.76313132e-02 
 2.48313311e+01  1.74770332e-01 -1.78311121e-02 
 2.51188643e+01  1.74727522e-01 -1.80330735e-02 
 2.54097271e+01  1.74683737e-01 -1.82372172e-02 
 2.57039578e+01  1.74638956e-01 -1.84435633e-02 
 2.60015956e+01  1.74593156e-01 -1.86521316e-02 
 2.63026799e+01  1.74546314e-01 -1.88629421e-02 
 2.66072506e+01  1.74498408e-01 -1.90760150e-02 
 2.69153480e+01  1.74449414e-01 -1.92913703e-02 
 2.72270131e+01  1.74399307e-01 -1.95090281e-02 
 2.75422870e+01  1.74348064e-01 -1.97290086e-02 
 2.78612117e+01  1.74295660e-01 -1.99513319e-02 
 2.81838293e+01  1.74242067e-01 -2.01760181e-02 
 2.85101827e+01  1.74187262e-01 -2.04030875e-02 
 2.88403150e+01  1.74131216e-01 -2.06325602e-02 
 2.91742701e+01  1.74073903e-01 -2.08644563e-02 
 2.95120923e+01  1.74015295e-01 -2.10987960e-02 
 2.98538262e+01  1.73955363e-01 -2.13355993e-02 
 3.01995172e+01  1.73894079e-01 -2.15748864e-02 
 3.05492111e+01  1.73831413e-01 -2.18166771e-02 
 3.09029543e+01  1.73767335e-01 -2.20609914e-02 
 3.12607937e+01  1.73701815e-01 -2.23078493e-02 
 3.16227766e+01  1.73634821e-01 -2.25572705e-02 
 3.19889511e+01  1.73566320e-01 -2.28092747e-02 
 3.23593657e+01  1.73496282e-01 -2.30638816e-02 
 3.27340695e+01  1.73424672e-01 -2.33211106e-02 
 3.31131121e+01  1.73351456e-01 -2.35809811e-02 
 3.34965439e+01  1.73276600e-01 -2.38435124e-02 
 3.38844156e+01  1.73200069e-01 -2.41087236e-02 
 3.42767787e+01  1.73121827e-01 -2.43766335e-02 
 3.46736850e+01  1.73041837e-01 -2.46472611e-02 
 3.50751874e+01  1.72960061e-01 -2.49206247e-02 
 3.54813389e+01  1.72876463e-01 -2.51967430e-02 
 3.58921935e+01  1.72791003e-01 -2.54756338e-02 
 3.63078055e+01  1.72703642e-01 -2.57573153e-02 
 3.67282300e+01  1.72614339e-01 -2.60418051e-02 
 3.71535229e+01  1.72523053e-01 -2.63291206e-02 
 3.75837404e+01  1.72429744e-01 -2.66192789e-02 
 3.80189396e+01  1.72334367e-01 -2.69122969e-02 
 3.84591782e+01  1.72236881e-01 -2.72081910e-02 
 3.89045145e+01  1.72137240e-01 -2.75069775e-02 
 3.93550075e+01  1.72035401e-01 -2.78086721e-02 
 3.98107171e+01  1.71931316e-01 -2.81132904e-02 
 4.02717034e+01  1.71824941e-01 -2.84208473e-02 
 4.07380278e+01  1.71716226e-01 -2.87313575e-02 
 4.12097519e+01  1.71605125e-01 -2.90448352e-02 
 4.16869383e+01  1.71491588e-01 -2.93612941e-02 
 4.21696503e+01  1.71375565e-01 -2.96807475e-02 
 4.26579519e+01  1.71257005e-01 -3.00032080e-02 
 4.31519077e+01  1.71135858e-01 -3.03286879e-02 
 4.36515832e+01  1.71012069e-01 -3.06571989e-02 
 4.41570447e+01  1.70885587e-01 -3.09887519e-02 
 4.46683592e+01  1.70756356e-01 -3.13233575e-02 
 4.51855944e+01  1.70624321e-01 -3.16610254e-02 
 4.57088190e+01  1.70489427e-01 -3.20017648e-02 
 4.62381021e+01  1.70351617e-01 -3.23455841e-02 
 4.67735141e+01  1.70210832e-01 -3.26924910e-02 
 4.73151259e+01  1.70067013e-01 -3.30424925e-02 
 4.78630092e+01  1.69920102e-01 -3.33955949e-02 
 4.84172368e+01  1.69770036e-01 -3.37518034e-02 
 4.89778819e+01  1.69616756e-01 -3.41111225e-02 
 4.95450191e+01  1.69460198e-01 -3.44735559e-02 
 5.01187234e+01  1.69300298e-01 -3.48391064e-02 
 5.06990708e+01  1.69136993e-01 -3.52077756e-02 
 5.12861384e+01  1.68970218e-01 -3.55795643e-02 
 5.18800039e+01  1.68799905e-01 -3.59544723e-02 
 5.24807460e+01  1.68625988e-01 -3.63324983e-02 
 5.30884444e+01  1.68448399e-01 -3.67136398e-02 
 5.37031796e+01  1.68267068e-01 -3.70978933e-02 
 5.43250331e+01  1.68081927e-01 -3.74852541e-02 
 5.49540874e+01  1.67892904e-01 -3.78757162e-02 
 5.55904257e+01  1.67699927e-01 -3.82692724e-02 
 5.62341325e+01  1.67502924e-01 -3.86659142e-02 
 5.68852931e+01  1.67301822e-01 -3.90656318e-02 
 5.75439937e+01  1.67096546e-01 -3.94684139e-02 
 5.82103218e+01  1.66887021e-01 -3.98742479e-02 
 5.88843655e+01  1.66673171e-01 -4.02831196e-02 
 5.95662144e+01  1.66454919e-01 -4.06950133e-02 
 6.02559586e+01  1.66232187e-01 -4.11099120e-02 
 6.09536897e+01  1.66004898e-01 -4.15277966e-02 
 6.16595002e+01  1.65772971e-01 -4.19486468e-02 
 6.23734835e+01  1.65536327e-01 -4.23724403e-02 
 6.30957344e+01  1.65294885e-01 -4.27991533e-02 
 6.38263486e+01  1.65048564e-01 -4.32287599e-02 
 6.45654229e+01  1.64797281e-01 -4.36612325e-02 
 6.53130553e+01  1.64540954e-01 -4.40965418e-02 
 6.60693448e+01  1.64279500e-01 -4.45346562e-02 
 6.68343918e+01  1.64012833e-01 -4.49755424e-02 
 6.76082975e+01  1.63740870e-01 -4.54191647e-02 
 6.83911647e+01  1.63463526e-01 -4.58654858e-02 
 6.91830971e+01  1.63180715e-01 -4.63144657e-02 
 6.99841996e+01  1.62892351e-01 -4.67660627e-02 
 7.07945784e+01  1.62598347e-01 -4.72202325e-02 
 7.16143410e+01  1.62298617e-01 -4.76769287e-02 
 7.24435960e+01  1.61993074e-01 -4.81361024e-02 
 7.32824533e+01  1.61681629e-01 -4.85977025e-02 
 7.41310241e+01  1.61364197e-01 -4.90616753e-02 
 7.49894209e+01  1.61040687e-01 -4.95279646e-02 
 7.58577575e+01  1.60711014e-01 -4.99965118e-02 
 7.67361489e+01  1.60375088e-01 -5.04672555e-02 
 7.76247117e+01  1.60032822e-01 -5.09401318e-02 
 7.85235635e+01  1.59684128e-01 -5.14150741e-02 
 7.94328235e+01  1.59328919e-01 -5.18920131e-02 
 8.03526122e+01  1.58967105e-01 -5.23708767e-02 
 8.12830516e+01  1.58598602e-01 -5.28515899e-02 
 8.22242650e+01  1.58223321e-01 -5.33340750e-02 
 8.31763771e+01  1.57841176e-01 -5.38182511e-02 
 8.41395142e+01  1.57452081e-01 -5.43040349e-02 
 8.51138038e+01  1.57055951e-01 -5.47913395e-02 
 8.60993752e+01  1.56652701e-01 -5.52800755e-02 
 8.70963590e+01  1.56242247e-01 -5.57701501e-02 
 8.81048873e+01  1.55824507e-01 -5.62614677e-02 
 8.91250938e+01  1.55399397e-01 -5.67539294e-02 
 9.01571138e+01  1.54966837e-01 -5.72474332e-02 
 9.12010839e+01  1.54526748e-01 -5.77418741e-02 
 9.22571427e+01  1.54079051e-01 -5.82371438e-02 
 9.33254301e+01  1.53623667e-01 -5.87331307e-02 
 9.44060876e+01  1.53160523e-01 -5.92297203e-02 
 9.54992586e+01  1.52689542e-01 -5.97267946e-02 
 9.66050879e+01  1.52210654e-01 -6.02242325e-02 
 9.77237221e+01  1.51723787e-01 -6.07219097e-02 
 9.88553095e+01  1.51228872e-01 -6.12196985e-02 
 1.00000000e+02  1.50725843e-01 -6.17174682e-02 
 1.01157945e+02  1.50214635e-01 -6.22150846e-02 
 1.02329299e+02  1.49695185e-01 -6.27124107e-02 
 1.03514217e+02  1.49167435e-01 -6.32093059e-02 
 1.04712855e+02  1.48631327e-01 -6.37056266e-02 
 1.05925373e+02  1.48086805e-01 -6.42012261e-02 
 1.07151931e+02  1.47533819e-01 -6.46959545e-02 
