 frequency       ad_real         ad_imag         ad_mag          ad_db           ad_ph          
 1.00000000e+00  4.23461606e+04 -1.77717111e+02  4.23465335e+04  9.25363573e+01 -4.19674570e-03 
 1.01157945e+00  4.23461432e+04 -1.79774904e+02  4.23465248e+04  9.25363555e+01 -4.24534114e-03 
 1.02329299e+00  4.23461255e+04 -1.81856523e+02  4.23465160e+04  9.25363537e+01 -4.29449927e-03 
 1.03514217e+00  4.23461073e+04 -1.83962243e+02  4.23465069e+04  9.25363518e+01 -4.34422661e-03 
 1.04712855e+00  4.23460887e+04 -1.86092344e+02  4.23464976e+04  9.25363499e+01 -4.39452974e-03 
 1.05925373e+00  4.23460696e+04 -1.88247107e+02  4.23464880e+04  9.25363480e+01 -4.44541533e-03 
 1.07151931e+00  4.23460501e+04 -1.90426818e+02  4.23464783e+04  9.25363460e+01 -4.49689012e-03 
 1.08392691e+00  4.23460302e+04 -1.92631766e+02  4.23464683e+04  9.25363439e+01 -4.54896094e-03 
 1.09647820e+00  4.23460098e+04 -1.94862243e+02  4.23464581e+04  9.25363418e+01 -4.60163469e-03 
 1.10917482e+00  4.23459889e+04 -1.97118544e+02  4.23464477e+04  9.25363397e+01 -4.65491834e-03 
 1.12201845e+00  4.23459675e+04 -1.99400969e+02  4.23464370e+04  9.25363375e+01 -4.70881896e-03 
 1.13501082e+00  4.23459456e+04 -2.01709819e+02  4.23464260e+04  9.25363353e+01 -4.76334370e-03 
 1.14815362e+00  4.23459233e+04 -2.04045401e+02  4.23464149e+04  9.25363330e+01 -4.81849977e-03 
 1.16144861e+00  4.23459004e+04 -2.06408023e+02  4.23464034e+04  9.25363306e+01 -4.87429449e-03 
 1.17489755e+00  4.23458769e+04 -2.08798000e+02  4.23463917e+04  9.25363282e+01 -4.93073525e-03 
 1.18850223e+00  4.23458529e+04 -2.11215647e+02  4.23463797e+04  9.25363257e+01 -4.98782953e-03 
 1.20226443e+00  4.23458284e+04 -2.13661285e+02  4.23463674e+04  9.25363232e+01 -5.04558490e-03 
 1.21618600e+00  4.23458033e+04 -2.16135238e+02  4.23463549e+04  9.25363207e+01 -5.10400901e-03 
 1.23026877e+00  4.23457776e+04 -2.18637834e+02  4.23463420e+04  9.25363180e+01 -5.16310960e-03 
 1.24451461e+00  4.23457513e+04 -2.21169403e+02  4.23463289e+04  9.25363153e+01 -5.22289452e-03 
 1.25892541e+00  4.23457244e+04 -2.23730282e+02  4.23463154e+04  9.25363126e+01 -5.28337166e-03 
 1.27350308e+00  4.23456969e+04 -2.26320810e+02  4.23463017e+04  9.25363097e+01 -5.34454907e-03 
 1.28824955e+00  4.23456687e+04 -2.28941329e+02  4.23462876e+04  9.25363068e+01 -5.40643483e-03 
 1.30316678e+00  4.23456399e+04 -2.31592187e+02  4.23462732e+04  9.25363039e+01 -5.46903715e-03 
 1.31825674e+00  4.23456104e+04 -2.34273735e+02  4.23462584e+04  9.25363009e+01 -5.53236433e-03 
 1.33352143e+00  4.23455802e+04 -2.36986328e+02  4.23462433e+04  9.25362978e+01 -5.59642476e-03 
 1.34896288e+00  4.23455493e+04 -2.39730325e+02  4.23462279e+04  9.25362946e+01 -5.66122693e-03 
 1.36458314e+00  4.23455177e+04 -2.42506090e+02  4.23462121e+04  9.25362914e+01 -5.72677942e-03 
 1.38038426e+00  4.23454853e+04 -2.45313991e+02  4.23461959e+04  9.25362880e+01 -5.79309093e-03 
 1.39636836e+00  4.23454522e+04 -2.48154399e+02  4.23461793e+04  9.25362846e+01 -5.86017023e-03 
 1.41253754e+00  4.23454183e+04 -2.51027691e+02  4.23461624e+04  9.25362812e+01 -5.92802623e-03 
 1.42889396e+00  4.23453837e+04 -2.53934247e+02  4.23461451e+04  9.25362776e+01 -5.99666790e-03 
 1.44543977e+00  4.23453482e+04 -2.56874452e+02  4.23461273e+04  9.25362740e+01 -6.06610435e-03 
 1.46217717e+00  4.23453119e+04 -2.59848695e+02  4.23461092e+04  9.25362703e+01 -6.13634477e-03 
 1.47910839e+00  4.23452748e+04 -2.62857371e+02  4.23460906e+04  9.25362665e+01 -6.20739848e-03 
 1.49623566e+00  4.23452368e+04 -2.65900877e+02  4.23460716e+04  9.25362626e+01 -6.27927489e-03 
 1.51356125e+00  4.23451979e+04 -2.68979617e+02  4.23460522e+04  9.25362586e+01 -6.35198352e-03 
 1.53108746e+00  4.23451581e+04 -2.72093998e+02  4.23460323e+04  9.25362545e+01 -6.42553401e-03 
 1.54881662e+00  4.23451174e+04 -2.75244434e+02  4.23460119e+04  9.25362503e+01 -6.49993610e-03 
 1.56675107e+00  4.23450757e+04 -2.78431340e+02  4.23459911e+04  9.25362460e+01 -6.57519966e-03 
 1.58489319e+00  4.23450331e+04 -2.81655139e+02  4.23459698e+04  9.25362417e+01 -6.65133465e-03 
 1.60324539e+00  4.23449894e+04 -2.84916258e+02  4.23459479e+04  9.25362372e+01 -6.72835117e-03 
 1.62181010e+00  4.23449448e+04 -2.88215129e+02  4.23459256e+04  9.25362326e+01 -6.80625941e-03 
 1.64058977e+00  4.23448991e+04 -2.91552189e+02  4.23459028e+04  9.25362279e+01 -6.88506970e-03 
 1.65958691e+00  4.23448523e+04 -2.94927878e+02  4.23458794e+04  9.25362231e+01 -6.96479249e-03 
 1.67880402e+00  4.23448045e+04 -2.98342645e+02  4.23458555e+04  9.25362182e+01 -7.04543833e-03 
 1.69824365e+00  4.23447555e+04 -3.01796941e+02  4.23458310e+04  9.25362132e+01 -7.12701791e-03 
 1.71790839e+00  4.23447054e+04 -3.05291224e+02  4.23458059e+04  9.25362081e+01 -7.20954205e-03 
 1.73780083e+00  4.23446542e+04 -3.08825956e+02  4.23457803e+04  9.25362028e+01 -7.29302167e-03 
 1.75792361e+00  4.23446017e+04 -3.12401605e+02  4.23457541e+04  9.25361974e+01 -7.37746783e-03 
 1.77827941e+00  4.23445480e+04 -3.16018644e+02  4.23457272e+04  9.25361919e+01 -7.46289173e-03 
 1.79887092e+00  4.23444931e+04 -3.19677553e+02  4.23456998e+04  9.25361863e+01 -7.54930468e-03 
 1.81970086e+00  4.23444369e+04 -3.23378815e+02  4.23456717e+04  9.25361805e+01 -7.63671813e-03 
 1.84077200e+00  4.23443794e+04 -3.27122921e+02  4.23456429e+04  9.25361746e+01 -7.72514366e-03 
 1.86208714e+00  4.23443205e+04 -3.30910366e+02  4.23456135e+04  9.25361686e+01 -7.81459299e-03 
 1.88364909e+00  4.23442603e+04 -3.34741651e+02  4.23455833e+04  9.25361624e+01 -7.90507796e-03 
 1.90546072e+00  4.23441986e+04 -3.38617284e+02  4.23455525e+04  9.25361561e+01 -7.99661057e-03 
 1.92752491e+00  4.23441356e+04 -3.42537777e+02  4.23455210e+04  9.25361496e+01 -8.08920294e-03 
 1.94984460e+00  4.23440710e+04 -3.46503650e+02  4.23454887e+04  9.25361430e+01 -8.18286734e-03 
 1.97242274e+00  4.23440050e+04 -3.50515426e+02  4.23454557e+04  9.25361362e+01 -8.27761617e-03 
 1.99526231e+00  4.23439374e+04 -3.54573638e+02  4.23454219e+04  9.25361293e+01 -8.37346200e-03 
 2.01836636e+00  4.23438682e+04 -3.58678821e+02  4.23453873e+04  9.25361222e+01 -8.47041750e-03 
 2.04173794e+00  4.23437975e+04 -3.62831520e+02  4.23453520e+04  9.25361149e+01 -8.56849554e-03 
 2.06538016e+00  4.23437251e+04 -3.67032283e+02  4.23453157e+04  9.25361075e+01 -8.66770910e-03 
 2.08929613e+00  4.23436510e+04 -3.71281667e+02  4.23452787e+04  9.25360999e+01 -8.76807133e-03 
 2.11348904e+00  4.23435752e+04 -3.75580233e+02  4.23452408e+04  9.25360921e+01 -8.86959552e-03 
 2.13796209e+00  4.23434976e+04 -3.79928551e+02  4.23452020e+04  9.25360842e+01 -8.97229511e-03 
 2.16271852e+00  4.23434182e+04 -3.84327196e+02  4.23451623e+04  9.25360760e+01 -9.07618372e-03 
 2.18776162e+00  4.23433369e+04 -3.88776749e+02  4.23451217e+04  9.25360677e+01 -9.18127510e-03 
 2.21309471e+00  4.23432538e+04 -3.93277800e+02  4.23450801e+04  9.25360592e+01 -9.28758318e-03 
 2.23872114e+00  4.23431687e+04 -3.97830943e+02  4.23450376e+04  9.25360504e+01 -9.39512203e-03 
 2.26464431e+00  4.23430817e+04 -4.02436780e+02  4.23449940e+04  9.25360415e+01 -9.50390591e-03 
 2.29086765e+00  4.23429926e+04 -4.07095922e+02  4.23449495e+04  9.25360324e+01 -9.61394921e-03 
 2.31739465e+00  4.23429014e+04 -4.11808984e+02  4.23449039e+04  9.25360230e+01 -9.72526651e-03 
 2.34422882e+00  4.23428081e+04 -4.16576590e+02  4.23448573e+04  9.25360135e+01 -9.83787257e-03 
 2.37137371e+00  4.23427127e+04 -4.21399370e+02  4.23448095e+04  9.25360037e+01 -9.95178229e-03 
 2.39883292e+00  4.23426150e+04 -4.26277961e+02  4.23447607e+04  9.25359937e+01 -1.00670108e-02 
 2.42661010e+00  4.23425151e+04 -4.31213009e+02  4.23447107e+04  9.25359834e+01 -1.01835732e-02 
 2.45470892e+00  4.23424128e+04 -4.36205167e+02  4.23446596e+04  9.25359729e+01 -1.03014852e-02 
 2.48313311e+00  4.23423081e+04 -4.41255094e+02  4.23446072e+04  9.25359622e+01 -1.04207621e-02 
 2.51188643e+00  4.23422010e+04 -4.46363458e+02  4.23445537e+04  9.25359512e+01 -1.05414200e-02 
 2.54097271e+00  4.23420914e+04 -4.51530935e+02  4.23444989e+04  9.25359400e+01 -1.06634747e-02 
 2.57039578e+00  4.23419793e+04 -4.56758207e+02  4.23444428e+04  9.25359285e+01 -1.07869424e-02 
 2.60015956e+00  4.23418645e+04 -4.62045966e+02  4.23443854e+04  9.25359167e+01 -1.09118394e-02 
 2.63026799e+00  4.23417471e+04 -4.67394909e+02  4.23443267e+04  9.25359046e+01 -1.10381824e-02 
 2.66072506e+00  4.23416269e+04 -4.72805746e+02  4.23442666e+04  9.25358923e+01 -1.11659879e-02 
 2.69153480e+00  4.23415040e+04 -4.78279189e+02  4.23442052e+04  9.25358797e+01 -1.12952731e-02 
 2.72270131e+00  4.23413782e+04 -4.83815964e+02  4.23441422e+04  9.25358668e+01 -1.14260548e-02 
 2.75422870e+00  4.23412494e+04 -4.89416800e+02  4.23440779e+04  9.25358536e+01 -1.15583506e-02 
 2.78612117e+00  4.23411177e+04 -4.95082439e+02  4.23440120e+04  9.25358401e+01 -1.16921779e-02 
 2.81838293e+00  4.23409828e+04 -5.00813629e+02  4.23439446e+04  9.25358262e+01 -1.18275543e-02 
 2.85101827e+00  4.23408449e+04 -5.06611127e+02  4.23438756e+04  9.25358121e+01 -1.19644980e-02 
 2.88403150e+00  4.23407037e+04 -5.12475698e+02  4.23438050e+04  9.25357976e+01 -1.21030269e-02 
 2.91742701e+00  4.23405592e+04 -5.18408119e+02  4.23437328e+04  9.25357828e+01 -1.22431594e-02 
 2.95120923e+00  4.23404114e+04 -5.24409171e+02  4.23436588e+04  9.25357676e+01 -1.23849141e-02 
 2.98538262e+00  4.23402602e+04 -5.30479648e+02  4.23435832e+04  9.25357521e+01 -1.25283097e-02 
 3.01995172e+00  4.23401054e+04 -5.36620351e+02  4.23435058e+04  9.25357362e+01 -1.26733653e-02 
 3.05492111e+00  4.23399470e+04 -5.42832091e+02  4.23434266e+04  9.25357200e+01 -1.28200999e-02 
 3.09029543e+00  4.23397849e+04 -5.49115688e+02  4.23433456e+04  9.25357034e+01 -1.29685331e-02 
 3.12607937e+00  4.23396190e+04 -5.55471972e+02  4.23432626e+04  9.25356864e+01 -1.31186846e-02 
 3.16227766e+00  4.23394493e+04 -5.61901782e+02  4.23431778e+04  9.25356690e+01 -1.32705740e-02 
 3.19889511e+00  4.23392757e+04 -5.68405967e+02  4.23430909e+04  9.25356511e+01 -1.34242217e-02 
 3.23593657e+00  4.23390980e+04 -5.74985384e+02  4.23430021e+04  9.25356329e+01 -1.35796478e-02 
 3.27340695e+00  4.23389161e+04 -5.81640903e+02  4.23429111e+04  9.25356143e+01 -1.37368731e-02 
 3.31131121e+00  4.23387300e+04 -5.88373401e+02  4.23428181e+04  9.25355952e+01 -1.38959182e-02 
 3.34965439e+00  4.23385396e+04 -5.95183768e+02  4.23427229e+04  9.25355756e+01 -1.40568043e-02 
 3.38844156e+00  4.23383448e+04 -6.02072900e+02  4.23426254e+04  9.25355557e+01 -1.42195526e-02 
 3.42767787e+00  4.23381454e+04 -6.09041707e+02  4.23425257e+04  9.25355352e+01 -1.43841847e-02 
 3.46736850e+00  4.23379413e+04 -6.16091109e+02  4.23424237e+04  9.25355143e+01 -1.45507223e-02 
 3.50751874e+00  4.23377326e+04 -6.23222035e+02  4.23423193e+04  9.25354929e+01 -1.47191875e-02 
 3.54813389e+00  4.23375189e+04 -6.30435424e+02  4.23422125e+04  9.25354709e+01 -1.48896027e-02 
 3.58921935e+00  4.23373003e+04 -6.37732230e+02  4.23421032e+04  9.25354485e+01 -1.50619902e-02 
 3.63078055e+00  4.23370766e+04 -6.45113412e+02  4.23419913e+04  9.25354256e+01 -1.52363730e-02 
 3.67282300e+00  4.23368477e+04 -6.52579945e+02  4.23418768e+04  9.25354021e+01 -1.54127741e-02 
 3.71535229e+00  4.23366135e+04 -6.60132812e+02  4.23417597e+04  9.25353781e+01 -1.55912169e-02 
 3.75837404e+00  4.23363738e+04 -6.67773009e+02  4.23416398e+04  9.25353535e+01 -1.57717249e-02 
 3.80189396e+00  4.23361285e+04 -6.75501543e+02  4.23415172e+04  9.25353283e+01 -1.59543220e-02 
 3.84591782e+00  4.23358775e+04 -6.83319431e+02  4.23413917e+04  9.25353026e+01 -1.61390325e-02 
 3.89045145e+00  4.23356207e+04 -6.91227704e+02  4.23412632e+04  9.25352762e+01 -1.63258807e-02 
 3.93550075e+00  4.23353579e+04 -6.99227403e+02  4.23411318e+04  9.25352493e+01 -1.65148913e-02 
 3.98107171e+00  4.23350889e+04 -7.07319581e+02  4.23409973e+04  9.25352217e+01 -1.67060893e-02 
 4.02717034e+00  4.23348137e+04 -7.15505305e+02  4.23408597e+04  9.25351934e+01 -1.68995001e-02 
 4.07380278e+00  4.23345322e+04 -7.23785652e+02  4.23407189e+04  9.25351646e+01 -1.70951492e-02 
 4.12097519e+00  4.23342440e+04 -7.32161711e+02  4.23405748e+04  9.25351350e+01 -1.72930625e-02 
 4.16869383e+00  4.23339491e+04 -7.40634586e+02  4.23404274e+04  9.25351047e+01 -1.74932661e-02 
 4.21696503e+00  4.23336474e+04 -7.49205391e+02  4.23402765e+04  9.25350738e+01 -1.76957865e-02 
 4.26579519e+00  4.23333387e+04 -7.57875253e+02  4.23401221e+04  9.25350421e+01 -1.79006505e-02 
 4.31519077e+00  4.23330228e+04 -7.66645313e+02  4.23399641e+04  9.25350097e+01 -1.81078853e-02 
 4.36515832e+00  4.23326995e+04 -7.75516725e+02  4.23398024e+04  9.25349765e+01 -1.83175180e-02 
 4.41570447e+00  4.23323687e+04 -7.84490655e+02  4.23396370e+04  9.25349426e+01 -1.85295766e-02 
 4.46683592e+00  4.23320302e+04 -7.93568283e+02  4.23394677e+04  9.25349079e+01 -1.87440891e-02 
 4.51855944e+00  4.23316838e+04 -8.02750802e+02  4.23392945e+04  9.25348723e+01 -1.89610837e-02 
 4.57088190e+00  4.23313293e+04 -8.12039419e+02  4.23391172e+04  9.25348360e+01 -1.91805891e-02 
 4.62381021e+00  4.23309666e+04 -8.21435354e+02  4.23389359e+04  9.25347988e+01 -1.94026345e-02 
 4.67735141e+00  4.23305955e+04 -8.30939842e+02  4.23387503e+04  9.25347607e+01 -1.96272490e-02 
 4.73151259e+00  4.23302157e+04 -8.40554131e+02  4.23385603e+04  9.25347217e+01 -1.98544625e-02 
 4.78630092e+00  4.23298271e+04 -8.50279483e+02  4.23383660e+04  9.25346819e+01 -2.00843049e-02 
 4.84172368e+00  4.23294294e+04 -8.60117175e+02  4.23381671e+04  9.25346411e+01 -2.03168065e-02 
 4.89778819e+00  4.23290225e+04 -8.70068498e+02  4.23379636e+04  9.25345993e+01 -2.05519982e-02 
 4.95450191e+00  4.23286061e+04 -8.80134759e+02  4.23377554e+04  9.25345566e+01 -2.07899109e-02 
 5.01187234e+00  4.23281800e+04 -8.90317277e+02  4.23375423e+04  9.25345129e+01 -2.10305762e-02 
 5.06990708e+00  4.23277440e+04 -9.00617388e+02  4.23373242e+04  9.25344681e+01 -2.12740257e-02 
 5.12861384e+00  4.23272979e+04 -9.11036444e+02  4.23371011e+04  9.25344224e+01 -2.15202917e-02 
 5.18800039e+00  4.23268413e+04 -9.21575809e+02  4.23368728e+04  9.25343755e+01 -2.17694067e-02 
 5.24807460e+00  4.23263742e+04 -9.32236865e+02  4.23366392e+04  9.25343276e+01 -2.20214035e-02 
 5.30884444e+00  4.23258962e+04 -9.43021009e+02  4.23364001e+04  9.25342785e+01 -2.22763155e-02 
 5.37031796e+00  4.23254070e+04 -9.53929653e+02  4.23361555e+04  9.25342284e+01 -2.25341763e-02 
 5.43250331e+00  4.23249065e+04 -9.64964226e+02  4.23359052e+04  9.25341770e+01 -2.27950199e-02 
 5.49540874e+00  4.23243943e+04 -9.76126174e+02  4.23356490e+04  9.25341244e+01 -2.30588807e-02 
 5.55904257e+00  4.23238702e+04 -9.87416955e+02  4.23353869e+04  9.25340707e+01 -2.33257937e-02 
 5.62341325e+00  4.23233340e+04 -9.98838048e+02  4.23351187e+04  9.25340156e+01 -2.35957940e-02 
 5.68852931e+00  4.23227852e+04 -1.01039095e+03  4.23348442e+04  9.25339593e+01 -2.38689173e-02 
 5.75439937e+00  4.23222237e+04 -1.02207716e+03  4.23345634e+04  9.25339017e+01 -2.41451995e-02 
 5.82103218e+00  4.23216491e+04 -1.03389822e+03  4.23342760e+04  9.25338427e+01 -2.44246772e-02 
 5.88843655e+00  4.23210611e+04 -1.04585567e+03  4.23339819e+04  9.25337824e+01 -2.47073872e-02 
 5.95662144e+00  4.23204595e+04 -1.05795107e+03  4.23336810e+04  9.25337207e+01 -2.49933668e-02 
 6.02559586e+00  4.23198438e+04 -1.07018599e+03  4.23333731e+04  9.25336575e+01 -2.52826538e-02 
 6.09536897e+00  4.23192139e+04 -1.08256205e+03  4.23330580e+04  9.25335928e+01 -2.55752862e-02 
 6.16595002e+00  4.23185693e+04 -1.09508085e+03  4.23327356e+04  9.25335267e+01 -2.58713027e-02 
 6.23734835e+00  4.23179097e+04 -1.10774402e+03  4.23324057e+04  9.25334590e+01 -2.61707423e-02 
 6.30957344e+00  4.23172347e+04 -1.12055322e+03  4.23320681e+04  9.25333897e+01 -2.64736444e-02 
 6.38263486e+00  4.23165441e+04 -1.13351011e+03  4.23317227e+04  9.25333189e+01 -2.67800491e-02 
 6.45654229e+00  4.23158373e+04 -1.14661639e+03  4.23313692e+04  9.25332463e+01 -2.70899966e-02 
 6.53130553e+00  4.23151142e+04 -1.15987376e+03  4.23310075e+04  9.25331721e+01 -2.74035279e-02 
 6.60693448e+00  4.23143742e+04 -1.17328395e+03  4.23306374e+04  9.25330962e+01 -2.77206842e-02 
 6.68343918e+00  4.23136171e+04 -1.18684870e+03  4.23302587e+04  9.25330184e+01 -2.80415073e-02 
 6.76082975e+00  4.23128423e+04 -1.20056978e+03  4.23298711e+04  9.25329389e+01 -2.83660395e-02 
 6.83911647e+00  4.23120495e+04 -1.21444897e+03  4.23294746e+04  9.25328576e+01 -2.86943235e-02 
 6.91830971e+00  4.23112382e+04 -1.22848807e+03  4.23290688e+04  9.25327743e+01 -2.90264026e-02 
 6.99841996e+00  4.23104081e+04 -1.24268891e+03  4.23286535e+04  9.25326891e+01 -2.93623204e-02 
 7.07945784e+00  4.23095587e+04 -1.25705333e+03  4.23282287e+04  9.25326019e+01 -2.97021213e-02 
 7.16143410e+00  4.23086896e+04 -1.27158320e+03  4.23277939e+04  9.25325127e+01 -3.00458499e-02 
 7.24435960e+00  4.23078002e+04 -1.28628040e+03  4.23273490e+04  9.25324214e+01 -3.03935515e-02 
 7.32824533e+00  4.23068902e+04 -1.30114684e+03  4.23268938e+04  9.25323280e+01 -3.07452717e-02 
 7.41310241e+00  4.23059590e+04 -1.31618444e+03  4.23264280e+04  9.25322324e+01 -3.11010570e-02 
 7.49894209e+00  4.23050061e+04 -1.33139515e+03  4.23259513e+04  9.25321346e+01 -3.14609540e-02 
 7.58577575e+00  4.23040311e+04 -1.34678094e+03  4.23254636e+04  9.25320345e+01 -3.18250102e-02 
 7.67361489e+00  4.23030335e+04 -1.36234380e+03  4.23249645e+04  9.25319321e+01 -3.21932733e-02 
 7.76247117e+00  4.23020126e+04 -1.37808574e+03  4.23244538e+04  9.25318272e+01 -3.25657919e-02 
 7.85235635e+00  4.23009680e+04 -1.39400880e+03  4.23239313e+04  9.25317200e+01 -3.29426148e-02 
 7.94328235e+00  4.22998992e+04 -1.41011503e+03  4.23233965e+04  9.25316103e+01 -3.33237916e-02 
 8.03526122e+00  4.22988055e+04 -1.42640651e+03  4.23228494e+04  9.25314980e+01 -3.37093723e-02 
 8.12830516e+00  4.22976864e+04 -1.44288534e+03  4.23222895e+04  9.25313831e+01 -3.40994077e-02 
 8.22242650e+00  4.22965412e+04 -1.45955365e+03  4.23217166e+04  9.25312655e+01 -3.44939489e-02 
 8.31763771e+00  4.22953695e+04 -1.47641359e+03  4.23211304e+04  9.25311452e+01 -3.48930477e-02 
 8.41395142e+00  4.22941706e+04 -1.49346731e+03  4.23205306e+04  9.25310221e+01 -3.52967566e-02 
 8.51138038e+00  4.22929438e+04 -1.51071703e+03  4.23199168e+04  9.25308961e+01 -3.57051285e-02 
 8.60993752e+00  4.22916884e+04 -1.52816495e+03  4.23192887e+04  9.25307672e+01 -3.61182170e-02 
 8.70963590e+00  4.22904040e+04 -1.54581331e+03  4.23186461e+04  9.25306353e+01 -3.65360763e-02 
 8.81048873e+00  4.22890896e+04 -1.56366439e+03  4.23179885e+04  9.25305003e+01 -3.69587612e-02 
 8.91250938e+00  4.22877448e+04 -1.58172047e+03  4.23173156e+04  9.25303622e+01 -3.73863271e-02 
 9.01571138e+00  4.22863687e+04 -1.59998386e+03  4.23166271e+04  9.25302209e+01 -3.78188300e-02 
 9.12010839e+00  4.22849607e+04 -1.61845691e+03  4.23159226e+04  9.25300763e+01 -3.82563267e-02 
 9.22571427e+00  4.22835199e+04 -1.63714198e+03  4.23152017e+04  9.25299283e+01 -3.86988745e-02 
 9.33254301e+00  4.22820457e+04 -1.65604145e+03  4.23144640e+04  9.25297769e+01 -3.91465313e-02 
 9.44060876e+00  4.22805373e+04 -1.67515774e+03  4.23137092e+04  9.25296219e+01 -3.95993558e-02 
 9.54992586e+00  4.22789938e+04 -1.69449329e+03  4.23129369e+04  9.25294634e+01 -4.00574072e-02 
 9.66050879e+00  4.22774146e+04 -1.71405057e+03  4.23121466e+04  9.25293012e+01 -4.05207454e-02 
 9.77237221e+00  4.22757986e+04 -1.73383207e+03  4.23113380e+04  9.25291352e+01 -4.09894312e-02 
 9.88553095e+00  4.22741451e+04 -1.75384030e+03  4.23105105e+04  9.25289653e+01 -4.14635258e-02 
 1.00000000e+01  4.22724533e+04 -1.77407781e+03  4.23096639e+04  9.25287915e+01 -4.19430911e-02 
 1.01157945e+01  4.22707222e+04 -1.79454717e+03  4.23087976e+04  9.25286137e+01 -4.24281899e-02 
 1.02329299e+01  4.22689509e+04 -1.81525098e+03  4.23079111e+04  9.25284317e+01 -4.29188855e-02 
 1.03514217e+01  4.22671385e+04 -1.83619187e+03  4.23070041e+04  9.25282454e+01 -4.34152421e-02 
 1.04712855e+01  4.22652840e+04 -1.85737247e+03  4.23060760e+04  9.25280549e+01 -4.39173245e-02 
