 frequency       psrrp_mag       psrrp_db       
 1.00000000e+00  1.76627081e-01 -1.50588542e+01 
 1.01157945e+00  1.76627045e-01 -1.50588559e+01 
 1.02329299e+00  1.76627008e-01 -1.50588578e+01 
 1.03514217e+00  1.76626970e-01 -1.50588596e+01 
 1.04712855e+00  1.76626931e-01 -1.50588615e+01 
 1.05925373e+00  1.76626892e-01 -1.50588635e+01 
 1.07151931e+00  1.76626851e-01 -1.50588655e+01 
 1.08392691e+00  1.76626809e-01 -1.50588675e+01 
 1.09647820e+00  1.76626767e-01 -1.50588696e+01 
 1.10917482e+00  1.76626723e-01 -1.50588718e+01 
 1.12201845e+00  1.76626679e-01 -1.50588740e+01 
 1.13501082e+00  1.76626633e-01 -1.50588762e+01 
 1.14815362e+00  1.76626586e-01 -1.50588785e+01 
 1.16144861e+00  1.76626539e-01 -1.50588808e+01 
 1.17489755e+00  1.76626490e-01 -1.50588832e+01 
 1.18850223e+00  1.76626440e-01 -1.50588857e+01 
 1.20226443e+00  1.76626389e-01 -1.50588882e+01 
 1.21618600e+00  1.76626336e-01 -1.50588908e+01 
 1.23026877e+00  1.76626283e-01 -1.50588934e+01 
 1.24451461e+00  1.76626228e-01 -1.50588961e+01 
 1.25892541e+00  1.76626172e-01 -1.50588989e+01 
 1.27350308e+00  1.76626114e-01 -1.50589017e+01 
 1.28824955e+00  1.76626056e-01 -1.50589046e+01 
 1.30316678e+00  1.76625996e-01 -1.50589075e+01 
 1.31825674e+00  1.76625934e-01 -1.50589106e+01 
 1.33352143e+00  1.76625871e-01 -1.50589137e+01 
 1.34896288e+00  1.76625807e-01 -1.50589168e+01 
 1.36458314e+00  1.76625741e-01 -1.50589201e+01 
 1.38038426e+00  1.76625673e-01 -1.50589234e+01 
 1.39636836e+00  1.76625604e-01 -1.50589268e+01 
 1.41253754e+00  1.76625534e-01 -1.50589303e+01 
 1.42889396e+00  1.76625461e-01 -1.50589338e+01 
 1.44543977e+00  1.76625388e-01 -1.50589374e+01 
 1.46217717e+00  1.76625312e-01 -1.50589412e+01 
 1.47910839e+00  1.76625234e-01 -1.50589450e+01 
 1.49623566e+00  1.76625155e-01 -1.50589489e+01 
 1.51356125e+00  1.76625074e-01 -1.50589529e+01 
 1.53108746e+00  1.76624991e-01 -1.50589569e+01 
 1.54881662e+00  1.76624906e-01 -1.50589611e+01 
 1.56675107e+00  1.76624819e-01 -1.50589654e+01 
 1.58489319e+00  1.76624730e-01 -1.50589698e+01 
 1.60324539e+00  1.76624639e-01 -1.50589742e+01 
 1.62181010e+00  1.76624546e-01 -1.50589788e+01 
 1.64058977e+00  1.76624451e-01 -1.50589835e+01 
 1.65958691e+00  1.76624354e-01 -1.50589883e+01 
 1.67880402e+00  1.76624254e-01 -1.50589932e+01 
 1.69824365e+00  1.76624152e-01 -1.50589982e+01 
 1.71790839e+00  1.76624047e-01 -1.50590033e+01 
 1.73780083e+00  1.76623941e-01 -1.50590086e+01 
 1.75792361e+00  1.76623831e-01 -1.50590140e+01 
 1.77827941e+00  1.76623719e-01 -1.50590195e+01 
 1.79887092e+00  1.76623605e-01 -1.50590251e+01 
 1.81970086e+00  1.76623487e-01 -1.50590309e+01 
 1.84077200e+00  1.76623368e-01 -1.50590368e+01 
 1.86208714e+00  1.76623245e-01 -1.50590428e+01 
 1.88364909e+00  1.76623119e-01 -1.50590490e+01 
 1.90546072e+00  1.76622991e-01 -1.50590553e+01 
 1.92752491e+00  1.76622859e-01 -1.50590618e+01 
 1.94984460e+00  1.76622725e-01 -1.50590684e+01 
 1.97242274e+00  1.76622587e-01 -1.50590752e+01 
 1.99526231e+00  1.76622446e-01 -1.50590821e+01 
 2.01836636e+00  1.76622302e-01 -1.50590892e+01 
 2.04173794e+00  1.76622154e-01 -1.50590964e+01 
 2.06538016e+00  1.76622003e-01 -1.50591039e+01 
 2.08929613e+00  1.76621849e-01 -1.50591115e+01 
 2.11348904e+00  1.76621691e-01 -1.50591192e+01 
 2.13796209e+00  1.76621529e-01 -1.50591272e+01 
 2.16271852e+00  1.76621364e-01 -1.50591353e+01 
 2.18776162e+00  1.76621194e-01 -1.50591437e+01 
 2.21309471e+00  1.76621021e-01 -1.50591522e+01 
 2.23872114e+00  1.76620843e-01 -1.50591609e+01 
 2.26464431e+00  1.76620662e-01 -1.50591698e+01 
 2.29086765e+00  1.76620476e-01 -1.50591790e+01 
 2.31739465e+00  1.76620286e-01 -1.50591883e+01 
 2.34422882e+00  1.76620092e-01 -1.50591979e+01 
 2.37137371e+00  1.76619893e-01 -1.50592077e+01 
 2.39883292e+00  1.76619689e-01 -1.50592177e+01 
 2.42661010e+00  1.76619481e-01 -1.50592279e+01 
 2.45470892e+00  1.76619267e-01 -1.50592384e+01 
 2.48313311e+00  1.76619049e-01 -1.50592492e+01 
 2.51188643e+00  1.76618826e-01 -1.50592601e+01 
 2.54097271e+00  1.76618597e-01 -1.50592714e+01 
 2.57039578e+00  1.76618364e-01 -1.50592829e+01 
 2.60015956e+00  1.76618124e-01 -1.50592946e+01 
 2.63026799e+00  1.76617880e-01 -1.50593067e+01 
 2.66072506e+00  1.76617629e-01 -1.50593190e+01 
 2.69153480e+00  1.76617373e-01 -1.50593316e+01 
 2.72270131e+00  1.76617110e-01 -1.50593445e+01 
 2.75422870e+00  1.76616842e-01 -1.50593577e+01 
 2.78612117e+00  1.76616567e-01 -1.50593712e+01 
 2.81838293e+00  1.76616286e-01 -1.50593850e+01 
 2.85101827e+00  1.76615998e-01 -1.50593992e+01 
 2.88403150e+00  1.76615704e-01 -1.50594137e+01 
 2.91742701e+00  1.76615403e-01 -1.50594285e+01 
 2.95120923e+00  1.76615095e-01 -1.50594436e+01 
 2.98538262e+00  1.76614779e-01 -1.50594591e+01 
 3.01995172e+00  1.76614457e-01 -1.50594750e+01 
 3.05492111e+00  1.76614126e-01 -1.50594913e+01 
 3.09029543e+00  1.76613788e-01 -1.50595079e+01 
 3.12607937e+00  1.76613443e-01 -1.50595249e+01 
 3.16227766e+00  1.76613089e-01 -1.50595423e+01 
 3.19889511e+00  1.76612727e-01 -1.50595601e+01 
 3.23593657e+00  1.76612356e-01 -1.50595783e+01 
 3.27340695e+00  1.76611977e-01 -1.50595970e+01 
 3.31131121e+00  1.76611589e-01 -1.50596160e+01 
 3.34965439e+00  1.76611192e-01 -1.50596356e+01 
 3.38844156e+00  1.76610786e-01 -1.50596556e+01 
 3.42767787e+00  1.76610370e-01 -1.50596760e+01 
 3.46736850e+00  1.76609944e-01 -1.50596969e+01 
 3.50751874e+00  1.76609509e-01 -1.50597183e+01 
 3.54813389e+00  1.76609064e-01 -1.50597402e+01 
 3.58921935e+00  1.76608608e-01 -1.50597627e+01 
 3.63078055e+00  1.76608141e-01 -1.50597856e+01 
 3.67282300e+00  1.76607664e-01 -1.50598091e+01 
 3.71535229e+00  1.76607176e-01 -1.50598331e+01 
 3.75837404e+00  1.76606676e-01 -1.50598577e+01 
 3.80189396e+00  1.76606164e-01 -1.50598828e+01 
 3.84591782e+00  1.76605641e-01 -1.50599086e+01 
 3.89045145e+00  1.76605106e-01 -1.50599349e+01 
 3.93550075e+00  1.76604558e-01 -1.50599619e+01 
 3.98107171e+00  1.76603997e-01 -1.50599894e+01 
 4.02717034e+00  1.76603423e-01 -1.50600177e+01 
 4.07380278e+00  1.76602836e-01 -1.50600465e+01 
 4.12097519e+00  1.76602235e-01 -1.50600761e+01 
 4.16869383e+00  1.76601620e-01 -1.50601063e+01 
 4.21696503e+00  1.76600991e-01 -1.50601373e+01 
 4.26579519e+00  1.76600347e-01 -1.50601689e+01 
 4.31519077e+00  1.76599689e-01 -1.50602013e+01 
 4.36515832e+00  1.76599014e-01 -1.50602345e+01 
 4.41570447e+00  1.76598325e-01 -1.50602684e+01 
 4.46683592e+00  1.76597619e-01 -1.50603031e+01 
 4.51855944e+00  1.76596897e-01 -1.50603387e+01 
 4.57088190e+00  1.76596157e-01 -1.50603750e+01 
 4.62381021e+00  1.76595401e-01 -1.50604122e+01 
 4.67735141e+00  1.76594627e-01 -1.50604503e+01 
 4.73151259e+00  1.76593835e-01 -1.50604892e+01 
 4.78630092e+00  1.76593025e-01 -1.50605291e+01 
 4.84172368e+00  1.76592196e-01 -1.50605699e+01 
 4.89778819e+00  1.76591347e-01 -1.50606116e+01 
 4.95450191e+00  1.76590479e-01 -1.50606543e+01 
 5.01187234e+00  1.76589590e-01 -1.50606980e+01 
 5.06990708e+00  1.76588681e-01 -1.50607427e+01 
 5.12861384e+00  1.76587751e-01 -1.50607885e+01 
 5.18800039e+00  1.76586799e-01 -1.50608353e+01 
 5.24807460e+00  1.76585825e-01 -1.50608832e+01 
 5.30884444e+00  1.76584828e-01 -1.50609323e+01 
 5.37031796e+00  1.76583808e-01 -1.50609825e+01 
 5.43250331e+00  1.76582764e-01 -1.50610338e+01 
 5.49540874e+00  1.76581696e-01 -1.50610863e+01 
 5.55904257e+00  1.76580603e-01 -1.50611401e+01 
 5.62341325e+00  1.76579485e-01 -1.50611951e+01 
 5.68852931e+00  1.76578340e-01 -1.50612514e+01 
 5.75439937e+00  1.76577169e-01 -1.50613090e+01 
 5.82103218e+00  1.76575971e-01 -1.50613679e+01 
 5.88843655e+00  1.76574745e-01 -1.50614283e+01 
 5.95662144e+00  1.76573490e-01 -1.50614900e+01 
 6.02559586e+00  1.76572206e-01 -1.50615531e+01 
 6.09536897e+00  1.76570892e-01 -1.50616178e+01 
 6.16595002e+00  1.76569548e-01 -1.50616839e+01 
 6.23734835e+00  1.76568172e-01 -1.50617516e+01 
 6.30957344e+00  1.76566765e-01 -1.50618208e+01 
 6.38263486e+00  1.76565324e-01 -1.50618917e+01 
 6.45654229e+00  1.76563850e-01 -1.50619642e+01 
 6.53130553e+00  1.76562342e-01 -1.50620384e+01 
 6.60693448e+00  1.76560799e-01 -1.50621143e+01 
 6.68343918e+00  1.76559220e-01 -1.50621920e+01 
 6.76082975e+00  1.76557604e-01 -1.50622715e+01 
 6.83911647e+00  1.76555950e-01 -1.50623528e+01 
 6.91830971e+00  1.76554258e-01 -1.50624361e+01 
 6.99841996e+00  1.76552527e-01 -1.50625213e+01 
 7.07945784e+00  1.76550755e-01 -1.50626084e+01 
 7.16143410e+00  1.76548942e-01 -1.50626976e+01 
 7.24435960e+00  1.76547087e-01 -1.50627889e+01 
 7.32824533e+00  1.76545189e-01 -1.50628823e+01 
 7.41310241e+00  1.76543247e-01 -1.50629778e+01 
 7.49894209e+00  1.76541259e-01 -1.50630756e+01 
 7.58577575e+00  1.76539225e-01 -1.50631757e+01 
 7.67361489e+00  1.76537144e-01 -1.50632781e+01 
 7.76247117e+00  1.76535015e-01 -1.50633828e+01 
 7.85235635e+00  1.76532836e-01 -1.50634900e+01 
 7.94328235e+00  1.76530606e-01 -1.50635997e+01 
 8.03526122e+00  1.76528325e-01 -1.50637120e+01 
 8.12830516e+00  1.76525990e-01 -1.50638269e+01 
 8.22242650e+00  1.76523602e-01 -1.50639444e+01 
 8.31763771e+00  1.76521157e-01 -1.50640647e+01 
 8.41395142e+00  1.76518656e-01 -1.50641878e+01 
 8.51138038e+00  1.76516097e-01 -1.50643137e+01 
 8.60993752e+00  1.76513478e-01 -1.50644426e+01 
 8.70963590e+00  1.76510798e-01 -1.50645744e+01 
 8.81048873e+00  1.76508056e-01 -1.50647093e+01 
 8.91250938e+00  1.76505251e-01 -1.50648474e+01 
 9.01571138e+00  1.76502380e-01 -1.50649887e+01 
 9.12010839e+00  1.76499442e-01 -1.50651333e+01 
 9.22571427e+00  1.76496436e-01 -1.50652812e+01 
 9.33254301e+00  1.76493360e-01 -1.50654326e+01 
 9.44060876e+00  1.76490213e-01 -1.50655875e+01 
 9.54992586e+00  1.76486993e-01 -1.50657459e+01 
 9.66050879e+00  1.76483697e-01 -1.50659081e+01 
 9.77237221e+00  1.76480326e-01 -1.50660741e+01 
 9.88553095e+00  1.76476875e-01 -1.50662439e+01 
 1.00000000e+01  1.76473345e-01 -1.50664176e+01 
 1.01157945e+01  1.76469733e-01 -1.50665954e+01 
 1.02329299e+01  1.76466037e-01 -1.50667774e+01 
 1.03514217e+01  1.76462254e-01 -1.50669635e+01 
 1.04712855e+01  1.76458385e-01 -1.50671540e+01 
 1.05925373e+01  1.76454425e-01 -1.50673489e+01 
 1.07151931e+01  1.76450373e-01 -1.50675484e+01 
 1.08392691e+01  1.76446227e-01 -1.50677525e+01 
 1.09647820e+01  1.76441985e-01 -1.50679613e+01 
 1.10917482e+01  1.76437644e-01 -1.50681750e+01 
 1.12201845e+01  1.76433203e-01 -1.50683936e+01 
 1.13501082e+01  1.76428658e-01 -1.50686174e+01 
 1.14815362e+01  1.76424009e-01 -1.50688463e+01 
 1.16144861e+01  1.76419251e-01 -1.50690805e+01 
 1.17489755e+01  1.76414382e-01 -1.50693202e+01 
 1.18850223e+01  1.76409401e-01 -1.50695655e+01 
 1.20226443e+01  1.76404304e-01 -1.50698165e+01 
 1.21618600e+01  1.76399089e-01 -1.50700732e+01 
 1.23026877e+01  1.76393753e-01 -1.50703360e+01 
 1.24451461e+01  1.76388293e-01 -1.50706049e+01 
 1.25892541e+01  1.76382706e-01 -1.50708800e+01 
 1.27350308e+01  1.76376990e-01 -1.50711615e+01 
 1.28824955e+01  1.76371141e-01 -1.50714495e+01 
 1.30316678e+01  1.76365157e-01 -1.50717442e+01 
 1.31825674e+01  1.76359033e-01 -1.50720458e+01 
 1.33352143e+01  1.76352768e-01 -1.50723544e+01 
 1.34896288e+01  1.76346358e-01 -1.50726701e+01 
 1.36458314e+01  1.76339799e-01 -1.50729932e+01 
 1.38038426e+01  1.76333088e-01 -1.50733237e+01 
 1.39636836e+01  1.76326221e-01 -1.50736620e+01 
 1.41253754e+01  1.76319196e-01 -1.50740081e+01 
 1.42889396e+01  1.76312007e-01 -1.50743622e+01 
 1.44543977e+01  1.76304652e-01 -1.50747245e+01 
 1.46217717e+01  1.76297127e-01 -1.50750953e+01 
 1.47910839e+01  1.76289428e-01 -1.50754746e+01 
 1.49623566e+01  1.76281550e-01 -1.50758628e+01 
 1.51356125e+01  1.76273489e-01 -1.50762600e+01 
 1.53108746e+01  1.76265242e-01 -1.50766663e+01 
 1.54881662e+01  1.76256805e-01 -1.50770821e+01 
 1.56675107e+01  1.76248172e-01 -1.50775076e+01 
 1.58489319e+01  1.76239339e-01 -1.50779429e+01 
 1.60324539e+01  1.76230301e-01 -1.50783883e+01 
 1.62181010e+01  1.76221055e-01 -1.50788441e+01 
 1.64058977e+01  1.76211595e-01 -1.50793104e+01 
 1.65958691e+01  1.76201916e-01 -1.50797875e+01 
 1.67880402e+01  1.76192013e-01 -1.50802756e+01 
 1.69824365e+01  1.76181882e-01 -1.50807751e+01 
 1.71790839e+01  1.76171516e-01 -1.50812862e+01 
 1.73780083e+01  1.76160910e-01 -1.50818091e+01 
 1.75792361e+01  1.76150060e-01 -1.50823441e+01 
 1.77827941e+01  1.76138959e-01 -1.50828915e+01 
 1.79887092e+01  1.76127601e-01 -1.50834516e+01 
 1.81970086e+01  1.76115981e-01 -1.50840247e+01 
 1.84077200e+01  1.76104093e-01 -1.50846110e+01 
 1.86208714e+01  1.76091931e-01 -1.50852109e+01 
 1.88364909e+01  1.76079488e-01 -1.50858247e+01 
 1.90546072e+01  1.76066757e-01 -1.50864527e+01 
 1.92752491e+01  1.76053733e-01 -1.50870952e+01 
 1.94984460e+01  1.76040409e-01 -1.50877526e+01 
 1.97242274e+01  1.76026777e-01 -1.50884252e+01 
 1.99526231e+01  1.76012832e-01 -1.50891134e+01 
 2.01836636e+01  1.75998564e-01 -1.50898175e+01 
 2.04173794e+01  1.75983968e-01 -1.50905379e+01 
 2.06538016e+01  1.75969036e-01 -1.50912749e+01 
 2.08929613e+01  1.75953760e-01 -1.50920290e+01 
 2.11348904e+01  1.75938132e-01 -1.50928004e+01 
 2.13796209e+01  1.75922145e-01 -1.50935898e+01 
 2.16271852e+01  1.75905790e-01 -1.50943973e+01 
 2.18776162e+01  1.75889058e-01 -1.50952235e+01 
 2.21309471e+01  1.75871942e-01 -1.50960688e+01 
 2.23872114e+01  1.75854432e-01 -1.50969337e+01 
 2.26464431e+01  1.75836519e-01 -1.50978184e+01 
 2.29086765e+01  1.75818195e-01 -1.50987236e+01 
 2.31739465e+01  1.75799451e-01 -1.50996497e+01 
 2.34422882e+01  1.75780275e-01 -1.51005972e+01 
 2.37137371e+01  1.75760660e-01 -1.51015665e+01 
 2.39883292e+01  1.75740595e-01 -1.51025582e+01 
 2.42661010e+01  1.75720069e-01 -1.51035727e+01 
 2.45470892e+01  1.75699073e-01 -1.51046106e+01 
 2.48313311e+01  1.75677595e-01 -1.51056725e+01 
 2.51188643e+01  1.75655625e-01 -1.51067588e+01 
 2.54097271e+01  1.75633152e-01 -1.51078701e+01 
 2.57039578e+01  1.75610165e-01 -1.51090070e+01 
 2.60015956e+01  1.75586651e-01 -1.51101701e+01 
 2.63026799e+01  1.75562599e-01 -1.51113599e+01 
 2.66072506e+01  1.75537998e-01 -1.51125772e+01 
 2.69153480e+01  1.75512834e-01 -1.51138224e+01 
 2.72270131e+01  1.75487095e-01 -1.51150963e+01 
 2.75422870e+01  1.75460769e-01 -1.51163994e+01 
 2.78612117e+01  1.75433841e-01 -1.51177326e+01 
 2.81838293e+01  1.75406299e-01 -1.51190963e+01 
 2.85101827e+01  1.75378129e-01 -1.51204913e+01 
 2.88403150e+01  1.75349317e-01 -1.51219184e+01 
 2.91742701e+01  1.75319848e-01 -1.51233783e+01 
 2.95120923e+01  1.75289709e-01 -1.51248716e+01 
 2.98538262e+01  1.75258883e-01 -1.51263992e+01 
 3.01995172e+01  1.75227356e-01 -1.51279618e+01 
 3.05492111e+01  1.75195113e-01 -1.51295602e+01 
 3.09029543e+01  1.75162137e-01 -1.51311953e+01 
 3.12607937e+01  1.75128412e-01 -1.51328678e+01 
 3.16227766e+01  1.75093922e-01 -1.51345786e+01 
 3.19889511e+01  1.75058649e-01 -1.51363285e+01 
 3.23593657e+01  1.75022577e-01 -1.51381185e+01 
 3.27340695e+01  1.74985688e-01 -1.51399494e+01 
 3.31131121e+01  1.74947963e-01 -1.51418222e+01 
 3.34965439e+01  1.74909386e-01 -1.51437377e+01 
 3.38844156e+01  1.74869936e-01 -1.51456970e+01 
 3.42767787e+01  1.74829595e-01 -1.51477010e+01 
 3.46736850e+01  1.74788342e-01 -1.51497507e+01 
 3.50751874e+01  1.74746160e-01 -1.51518472e+01 
 3.54813389e+01  1.74703026e-01 -1.51539914e+01 
 3.58921935e+01  1.74658921e-01 -1.51561845e+01 
 3.63078055e+01  1.74613823e-01 -1.51584276e+01 
 3.67282300e+01  1.74567711e-01 -1.51607217e+01 
 3.71535229e+01  1.74520562e-01 -1.51630679e+01 
 3.75837404e+01  1.74472355e-01 -1.51654676e+01 
 3.80189396e+01  1.74423066e-01 -1.51679217e+01 
 3.84591782e+01  1.74372672e-01 -1.51704315e+01 
 3.89045145e+01  1.74321150e-01 -1.51729984e+01 
 3.93550075e+01  1.74268475e-01 -1.51756234e+01 
 3.98107171e+01  1.74214622e-01 -1.51783079e+01 
 4.02717034e+01  1.74159567e-01 -1.51810533e+01 
 4.07380278e+01  1.74103283e-01 -1.51838608e+01 
 4.12097519e+01  1.74045745e-01 -1.51867318e+01 
 4.16869383e+01  1.73986926e-01 -1.51896677e+01 
 4.21696503e+01  1.73926798e-01 -1.51926700e+01 
 4.26579519e+01  1.73865334e-01 -1.51957400e+01 
 4.31519077e+01  1.73802506e-01 -1.51988793e+01 
 4.36515832e+01  1.73738285e-01 -1.52020894e+01 
 4.41570447e+01  1.73672642e-01 -1.52053718e+01 
 4.46683592e+01  1.73605547e-01 -1.52087281e+01 
 4.51855944e+01  1.73536969e-01 -1.52121598e+01 
 4.57088190e+01  1.73466878e-01 -1.52156687e+01 
 4.62381021e+01  1.73395243e-01 -1.52192564e+01 
 4.67735141e+01  1.73322030e-01 -1.52229246e+01 
 4.73151259e+01  1.73247209e-01 -1.52266751e+01 
 4.78630092e+01  1.73170744e-01 -1.52305095e+01 
 4.84172368e+01  1.73092604e-01 -1.52344298e+01 
 4.89778819e+01  1.73012753e-01 -1.52384377e+01 
 4.95450191e+01  1.72931156e-01 -1.52425351e+01 
 5.01187234e+01  1.72847778e-01 -1.52467240e+01 
 5.06990708e+01  1.72762583e-01 -1.52510062e+01 
 5.12861384e+01  1.72675533e-01 -1.52553839e+01 
 5.18800039e+01  1.72586593e-01 -1.52598589e+01 
 5.24807460e+01  1.72495722e-01 -1.52644334e+01 
 5.30884444e+01  1.72402884e-01 -1.52691095e+01 
 5.37031796e+01  1.72308038e-01 -1.52738893e+01 
 5.43250331e+01  1.72211145e-01 -1.52787749e+01 
 5.49540874e+01  1.72112164e-01 -1.52837687e+01 
 5.55904257e+01  1.72011054e-01 -1.52888729e+01 
 5.62341325e+01  1.71907773e-01 -1.52940897e+01 
 5.68852931e+01  1.71802279e-01 -1.52994216e+01 
 5.75439937e+01  1.71694529e-01 -1.53048709e+01 
 5.82103218e+01  1.71584479e-01 -1.53104400e+01 
 5.88843655e+01  1.71472084e-01 -1.53161315e+01 
 5.95662144e+01  1.71357299e-01 -1.53219478e+01 
 6.02559586e+01  1.71240080e-01 -1.53278916e+01 
 6.09536897e+01  1.71120378e-01 -1.53339654e+01 
 6.16595002e+01  1.70998149e-01 -1.53401718e+01 
 6.23734835e+01  1.70873343e-01 -1.53465137e+01 
 6.30957344e+01  1.70745912e-01 -1.53529937e+01 
 6.38263486e+01  1.70615809e-01 -1.53596146e+01 
 6.45654229e+01  1.70482982e-01 -1.53663793e+01 
 6.53130553e+01  1.70347382e-01 -1.53732907e+01 
 6.60693448e+01  1.70208959e-01 -1.53803517e+01 
 6.68343918e+01  1.70067660e-01 -1.53875653e+01 
 6.76082975e+01  1.69923433e-01 -1.53949345e+01 
 6.83911647e+01  1.69776227e-01 -1.54024624e+01 
 6.91830971e+01  1.69625987e-01 -1.54101522e+01 
 6.99841996e+01  1.69472660e-01 -1.54180071e+01 
 7.07945784e+01  1.69316192e-01 -1.54260301e+01 
 7.16143410e+01  1.69156527e-01 -1.54342248e+01 
 7.24435960e+01  1.68993610e-01 -1.54425943e+01 
 7.32824533e+01  1.68827385e-01 -1.54511421e+01 
 7.41310241e+01  1.68657795e-01 -1.54598716e+01 
 7.49894209e+01  1.68484783e-01 -1.54687863e+01 
 7.58577575e+01  1.68308292e-01 -1.54778897e+01 
 7.67361489e+01  1.68128263e-01 -1.54871855e+01 
 7.76247117e+01  1.67944637e-01 -1.54966772e+01 
 7.85235635e+01  1.67757356e-01 -1.55063685e+01 
 7.94328235e+01  1.67566361e-01 -1.55162632e+01 
 8.03526122e+01  1.67371591e-01 -1.55263651e+01 
 8.12830516e+01  1.67172985e-01 -1.55366780e+01 
 8.22242650e+01  1.66970485e-01 -1.55472058e+01 
 8.31763771e+01  1.66764028e-01 -1.55579525e+01 
 8.41395142e+01  1.66553553e-01 -1.55689220e+01 
 8.51138038e+01  1.66338999e-01 -1.55801183e+01 
 8.60993752e+01  1.66120304e-01 -1.55915456e+01 
 8.70963590e+01  1.65897406e-01 -1.56032081e+01 
 8.81048873e+01  1.65670243e-01 -1.56151098e+01 
 8.91250938e+01  1.65438753e-01 -1.56272550e+01 
 9.01571138e+01  1.65202873e-01 -1.56396481e+01 
 9.12010839e+01  1.64962541e-01 -1.56522932e+01 
 9.22571427e+01  1.64717694e-01 -1.56651949e+01 
 9.33254301e+01  1.64468270e-01 -1.56783575e+01 
 9.44060876e+01  1.64214206e-01 -1.56917855e+01 
 9.54992586e+01  1.63955440e-01 -1.57054834e+01 
 9.66050879e+01  1.63691910e-01 -1.57194557e+01 
 9.77237221e+01  1.63423553e-01 -1.57337070e+01 
 9.88553095e+01  1.63150308e-01 -1.57482420e+01 
 1.00000000e+02  1.62872114e-01 -1.57630653e+01 
 1.01157945e+02  1.62588909e-01 -1.57781817e+01 
 1.02329299e+02  1.62300631e-01 -1.57935958e+01 
 1.03514217e+02  1.62007222e-01 -1.58093125e+01 
 1.04712855e+02  1.61708621e-01 -1.58253365e+01 
 1.05925373e+02  1.61404769e-01 -1.58416728e+01 
 1.07151931e+02  1.61095606e-01 -1.58583261e+01 
