 frequency              onoise_spectrum       
 1.000000000000000e-02  1.634420117784215e-01 
 1.023292992280754e-02  1.615032819498414e-01 
 1.047128548050899e-02  1.595878547828309e-01 
 1.071519305237606e-02  1.576954466346478e-01 
 1.096478196143185e-02  1.558257773538599e-01 
 1.122018454301963e-02  1.539785702400372e-01 
 1.148153621496882e-02  1.521535519956258e-01 
 1.174897554939529e-02  1.503504526892406e-01 
 1.202264434617412e-02  1.485690057102438e-01 
 1.230268770812381e-02  1.468089477285369e-01 
 1.258925411794167e-02  1.450700186536666e-01 
 1.288249551693134e-02  1.433519615955650e-01 
 1.318256738556407e-02  1.416545228226659e-01 
 1.348962882591653e-02  1.399774517246570e-01 
 1.380384264602884e-02  1.383205007727170e-01 
 1.412537544622754e-02  1.366834254823143e-01 
 1.445439770745927e-02  1.350659843731443e-01 
 1.479108388168207e-02  1.334679389344224e-01 
 1.513561248436207e-02  1.318890535860218e-01 
 1.548816618912481e-02  1.303290956434753e-01 
 1.584893192461113e-02  1.287878352807773e-01 
 1.621810097358929e-02  1.272650454965812e-01 
 1.659586907437560e-02  1.257605020771396e-01 
 1.698243652461744e-02  1.242739835637931e-01 
 1.737800828749375e-02  1.228052712161875e-01 
 1.778279410038922e-02  1.213541489817576e-01 
 1.819700858609983e-02  1.199204034588863e-01 
 1.862087136662867e-02  1.185038238675802e-01 
 1.905460717963246e-02  1.171042020140384e-01 
 1.949844599758044e-02  1.157213322602282e-01 
 1.995262314968879e-02  1.143550114908839e-01 
 2.041737944669528e-02  1.130050390841148e-01 
 2.089296130854039e-02  1.116712168790911e-01 
 2.137962089502231e-02  1.103533491450715e-01 
 2.187761623949552e-02  1.090512425530096e-01 
 2.238721138568339e-02  1.077647061441614e-01 
 2.290867652767772e-02  1.064935513020262e-01 
 2.344228815319921e-02  1.052375917219303e-01 
 2.398832919019489e-02  1.039966433838524e-01 
 2.454708915685028e-02  1.027705245229317e-01 
 2.511886431509578e-02  1.015590556016409e-01 
 2.570395782768862e-02  1.003620592837728e-01 
 2.630267991895379e-02  9.917936040438080e-02 
 2.691534803926913e-02  9.801078594584015e-02 
 2.754228703338164e-02  9.685616500877049e-02 
 2.818382931264451e-02  9.571532878784501e-02 
 2.884031503126603e-02  9.458811054410921e-02 
 2.951209226666382e-02  9.347434558113663e-02 
 3.019951720402013e-02  9.237387121795303e-02 
 3.090295432513587e-02  9.128652676579060e-02 
 3.162277660168375e-02  9.021215350184258e-02 
 3.235936569296278e-02  8.915059464613012e-02 
 3.311311214825906e-02  8.810169533744920e-02 
 3.388441561392020e-02  8.706530260856661e-02 
 3.467368504525311e-02  8.604126536401463e-02 
 3.548133892335749e-02  8.502943435574471e-02 
 3.630780547701008e-02  8.402966216191003e-02 
 3.715352290971719e-02  8.304180316252163e-02 
 3.801893963205605e-02  8.206571351834391e-02 
 3.890451449942799e-02  8.110125114837530e-02 
 3.981071705534966e-02  8.014827570840048e-02 
 4.073802778041120e-02  7.920664856931543e-02 
 4.168693834703347e-02  7.827623279607208e-02 
 4.265795188015920e-02  7.735689312667819e-02 
 4.365158322401652e-02  7.644849595086853e-02 
 4.466835921509623e-02  7.555090929181928e-02 
 4.570881896148742e-02  7.466400278307106e-02 
 4.677351412871973e-02  7.378764765093700e-02 
 4.786300923226374e-02  7.292171669366336e-02 
 4.897788193684452e-02  7.206608426240931e-02 
 5.011872336272712e-02  7.122062624219620e-02 
 5.128613839913638e-02  7.038522003193240e-02 
 5.248074602497715e-02  6.955974452817000e-02 
 5.370317963702516e-02  6.874408010346424e-02 
 5.495408738576234e-02  6.793810859075462e-02 
 5.623413251903479e-02  6.714171326379335e-02 
 5.754399373371557e-02  6.635477882014010e-02 
 5.888436553555877e-02  6.557719136319266e-02 
 6.025595860743563e-02  6.480883838547147e-02 
 6.165950018614807e-02  6.404960875025216e-02 
 6.309573444801918e-02  6.329939267612049e-02 
 6.456542290346540e-02  6.255808171952992e-02 
 6.606934480075945e-02  6.182556875788545e-02 
 6.760829753919802e-02  6.110174797433884e-02 
 6.918309709189348e-02  6.038651484062636e-02 
 7.079457843841361e-02  5.967976610193337e-02 
 7.244359600749882e-02  5.898139976098771e-02 
 7.413102413009155e-02  5.829131506231349e-02 
 7.585775750291818e-02  5.760941247739109e-02 
 7.762471166286897e-02  5.693559368889457e-02 
 7.943282347242793e-02  5.626976157671709e-02 
 8.128305161640970e-02  5.561182020214737e-02 
 8.317637711026686e-02  5.496167479415590e-02 
 8.511380382023739e-02  5.431923173467796e-02 
 8.709635899560780e-02  5.368439854470245e-02 
 8.912509381337429e-02  5.305708386946358e-02 
 9.120108393559070e-02  5.243719746540110e-02 
 9.332543007969883e-02  5.182465018692400e-02 
 9.549925860214331e-02  5.121935397105904e-02 
 9.772372209558078e-02  5.062122182606524e-02 
 9.999999999999970e-02  5.003016781744621e-02 
 1.023292992280751e-01  4.944610705465136e-02 
 1.047128548050896e-01  4.886895567897173e-02 
 1.071519305237603e-01  4.829863085033566e-02 
 1.096478196143182e-01  4.773505073450380e-02 
 1.122018454301960e-01  4.717813449198678e-02 
 1.148153621496879e-01  4.662780226404938e-02 
 1.174897554939526e-01  4.608397516236995e-02 
 1.202264434617409e-01  4.554657525550741e-02 
 1.230268770812377e-01  4.501552555865861e-02 
 1.258925411794163e-01  4.449075002072998e-02 
 1.288249551693130e-01  4.397217351388305e-02 
 1.318256738556403e-01  4.345972182161396e-02 
 1.348962882591649e-01  4.295332162771857e-02 
 1.380384264602880e-01  4.245290050509234e-02 
 1.412537544622749e-01  4.195838690540191e-02 
 1.445439770745922e-01  4.146971014734824e-02 
 1.479108388168202e-01  4.098680040665025e-02 
 1.513561248436203e-01  4.050958870580301e-02 
 1.548816618912476e-01  4.003800690284106e-02 
 1.584893192461108e-01  3.957198768165553e-02 
 1.621810097358924e-01  3.911146454209547e-02 
 1.659586907437555e-01  3.865637178907723e-02 
 1.698243652461738e-01  3.820664452362722e-02 
 1.737800828749369e-01  3.776221863264726e-02 
 1.778279410038916e-01  3.732303077934893e-02 
 1.819700858609977e-01  3.688901839380275e-02 
 1.862087136662861e-01  3.646011966363200e-02 
 1.905460717963240e-01  3.603627352425685e-02 
 1.949844599758038e-01  3.561741965042350e-02 
 1.995262314968872e-01  3.520349844673568e-02 
 2.041737944669521e-01  3.479445103856667e-02 
 2.089296130854031e-01  3.439021926368609e-02 
 2.137962089502223e-01  3.399074566314308e-02 
 2.187761623949543e-01  3.359597347286452e-02 
 2.238721138568330e-01  3.320584661511593e-02 
 2.290867652767763e-01  3.282030969012684e-02 
 2.344228815319912e-01  3.243930796750973e-02 
 2.398832919019480e-01  3.206278737849347e-02 
 2.454708915685020e-01  3.169069450757230e-02 
 2.511886431509570e-01  3.132297658448843e-02 
 2.570395782768853e-01  3.095958147655631e-02 
 2.630267991895371e-01  3.060045768075200e-02 
 2.691534803926904e-01  3.024555431580255e-02 
 2.754228703338155e-01  2.989482111487527e-02 
 2.818382931264442e-01  2.954820841795846e-02 
 2.884031503126593e-01  2.920566716449333e-02 
 2.951209226666373e-01  2.886714888594490e-02 
 3.019951720402003e-01  2.853260569849496e-02 
 3.090295432513577e-01  2.820199029629188e-02 
 3.162277660168365e-01  2.787525594377511e-02 
 3.235936569296268e-01  2.755235646943717e-02 
 3.311311214825896e-01  2.723324625828161e-02 
 3.388441561392009e-01  2.691788024531697e-02 
 3.467368504525300e-01  2.660621390883929e-02 
 3.548133892335738e-01  2.629820326391113e-02 
 3.630780547700996e-01  2.599380485546579e-02 
 3.715352290971707e-01  2.569297575213713e-02 
 3.801893963205594e-01  2.539567353975425e-02 
 3.890451449942787e-01  2.510185631507430e-02 
 3.981071705534953e-01  2.481148267959043e-02 
 4.073802778041107e-01  2.452451173313831e-02 
 4.168693834703334e-01  2.424090306815983e-02 
 4.265795188015906e-01  2.396061676341864e-02 
 4.365158322401638e-01  2.368361337821736e-02 
 4.466835921509609e-01  2.340985394647594e-02 
 4.570881896148728e-01  2.313929997096631e-02 
 4.677351412871959e-01  2.287191341771570e-02 
 4.786300923226360e-01  2.260765670996482e-02 
 4.897788193684438e-01  2.234649272320652e-02 
 5.011872336272698e-01  2.208838477905019e-02 
 5.128613839913623e-01  2.183329664027099e-02 
 5.248074602497700e-01  2.158119250514780e-02 
 5.370317963702500e-01  2.133203700223679e-02 
 5.495408738576217e-01  2.108579518527811e-02 
 5.623413251903462e-01  2.084243252783275e-02 
 5.754399373371539e-01  2.060191491810298e-02 
 5.888436553555859e-01  2.036420865418924e-02 
 6.025595860743546e-01  2.012928043871090e-02 
 6.165950018614789e-01  1.989709737433936e-02 
 6.309573444801898e-01  1.966762695856268e-02 
 6.456542290346520e-01  1.944083707895470e-02 
 6.606934480075923e-01  1.921669600858112e-02 
 6.760829753919780e-01  1.899517240109316e-02 
 6.918309709189326e-01  1.877623528637956e-02 
 7.079457843841339e-01  1.855985406564781e-02 
 7.244359600749859e-01  1.834599850718670e-02 
 7.413102413009133e-01  1.813463874186807e-02 
 7.585775750291794e-01  1.792574525848910e-02 
 7.762471166286873e-01  1.771928889975185e-02 
 7.943282347242769e-01  1.751524085783525e-02 
 8.128305161640945e-01  1.731357267005834e-02 
 8.317637711026662e-01  1.711425621476447e-02 
 8.511380382023715e-01  1.691726370719315e-02 
 8.709635899560756e-01  1.672256769544522e-02 
 8.912509381337403e-01  1.653014105626572e-02 
 9.120108393559044e-01  1.633995699111423e-02 
 9.332543007969856e-01  1.615198902247497e-02 
 9.549925860214303e-01  1.596621098952283e-02 
 9.772372209558049e-01  1.578259704462963e-02 
 9.999999999999940e-01  1.560112164940909e-02 
 1.023292992280748e+00  1.542175957091165e-02 
 1.047128548050893e+00  1.524448587810610e-02 
 1.071519305237600e+00  1.506927593808122e-02 
 1.096478196143178e+00  1.489610541244312e-02 
 1.122018454301957e+00  1.472495025371762e-02 
 1.148153621496876e+00  1.455578670188608e-02 
 1.174897554939522e+00  1.438859128094755e-02 
 1.202264434617406e+00  1.422334079522553e-02 
 1.230268770812374e+00  1.406001232635280e-02 
 1.258925411794160e+00  1.389858322949180e-02 
 1.288249551693126e+00  1.373903113040720e-02 
 1.318256738556399e+00  1.358133392183744e-02 
 1.348962882591645e+00  1.342546976059047e-02 
 1.380384264602876e+00  1.327141706398063e-02 
 1.412537544622746e+00  1.311915450711046e-02 
 1.445439770745919e+00  1.296866101924336e-02 
 1.479108388168198e+00  1.281991578115583e-02 
 1.513561248436199e+00  1.267289822186358e-02 
 1.548816618912471e+00  1.252758801573510e-02 
 1.584893192461103e+00  1.238396507931313e-02 
 1.621810097358920e+00  1.224200956863003e-02 
 1.659586907437550e+00  1.210170187616592e-02 
 1.698243652461733e+00  1.196302262802700e-02 
 1.737800828749364e+00  1.182595268105399e-02 
 1.778279410038911e+00  1.169047312012029e-02 
 1.819700858609971e+00  1.155656525532810e-02 
 1.862087136662855e+00  1.142421061926072e-02 
 1.905460717963235e+00  1.129339096429838e-02 
 1.949844599758032e+00  1.116408825999503e-02 
 1.995262314968866e+00  1.103628469037032e-02 
 2.041737944669515e+00  1.090996265141774e-02 
 2.089296130854025e+00  1.078510474840416e-02 
 2.137962089502217e+00  1.066169379344876e-02 
 2.187761623949537e+00  1.053971280298839e-02 
 2.238721138568323e+00  1.041914499524822e-02 
 2.290867652767756e+00  1.029997378789700e-02 
 2.344228815319905e+00  1.018218279546139e-02 
 2.398832919019473e+00  1.006575582723271e-02 
 2.454708915685012e+00  9.950676884546964e-03 
 2.511886431509561e+00  9.836930158737524e-03 
 2.570395782768844e+00  9.724500028693900e-03 
 2.630267991895362e+00  9.613371058698127e-03 
 2.691534803926895e+00  9.503527995936543e-03 
 2.754228703338145e+00  9.394955768679141e-03 
 2.818382931264432e+00  9.287639483648929e-03 
 2.884031503126584e+00  9.181564424199869e-03 
 2.951209226666363e+00  9.076716048003875e-03 
 3.019951720401993e+00  8.973079984945309e-03 
 3.090295432513567e+00  8.870642035001718e-03 
 3.162277660168355e+00  8.769388166423978e-03 
 3.235936569296257e+00  8.669304513295737e-03 
 3.311311214825885e+00  8.570377373846775e-03 
 3.388441561391999e+00  8.472593208321978e-03 
 3.467368504525289e+00  8.375938636933686e-03 
 3.548133892335727e+00  8.280400438164354e-03 
 3.630780547700985e+00  8.185965546601890e-03 
 3.715352290971696e+00  8.092621051086248e-03 
 3.801893963205582e+00  8.000354192958203e-03 
 3.890451449942775e+00  7.909152364062031e-03 
 3.981071705534941e+00  7.819003104995483e-03 
 4.073802778041094e+00  7.729894103248598e-03 
 4.168693834703320e+00  7.641813191446097e-03 
 4.265795188015892e+00  7.554748345536525e-03 
 4.365158322401624e+00  7.468687683075532e-03 
 4.466835921509595e+00  7.383619461476128e-03 
 4.570881896148713e+00  7.299532076336871e-03 
 4.677351412871944e+00  7.216414059693742e-03 
 4.786300923226344e+00  7.134254078375210e-03 
 4.897788193684422e+00  7.053040932344309e-03 
 5.011872336272681e+00  6.972763553107983e-03 
 5.128613839913606e+00  6.893411002017194e-03 
 5.248074602497682e+00  6.814972468738039e-03 
 5.370317963702482e+00  6.737437269649113e-03 
 5.495408738576200e+00  6.660794846315698e-03 
 5.623413251903443e+00  6.585034763848308e-03 
 5.754399373371521e+00  6.510146709515391e-03 
 5.888436553555840e+00  6.436120491096976e-03 
 6.025595860743526e+00  6.362946035494879e-03 
 6.165950018614769e+00  6.290613387178610e-03 
 6.309573444801878e+00  6.219112706829788e-03 
 6.456542290346500e+00  6.148434269756617e-03 
 6.606934480075903e+00  6.078568464564263e-03 
 6.760829753919760e+00  6.009505791725065e-03 
 6.918309709189305e+00  5.941236862190565e-03 
 7.079457843841318e+00  5.873752395916290e-03 
 7.244359600749839e+00  5.807043220622784e-03 
 7.413102413009112e+00  5.741100270383954e-03 
 7.585775750291773e+00  5.675914584238139e-03 
 7.762471166286851e+00  5.611477304956729e-03 
 7.943282347242747e+00  5.547779677657222e-03 
 8.128305161640922e+00  5.484813048519679e-03 
 8.317637711026638e+00  5.422568863515238e-03 
 8.511380382023690e+00  5.361038667118628e-03 
 8.709635899560730e+00  5.300214101047894e-03 
 8.912509381337378e+00  5.240086903029947e-03 
 9.120108393559018e+00  5.180648905541427e-03 
 9.332543007969829e+00  5.121892034615857e-03 
 9.549925860214275e+00  5.063808308529196e-03 
 9.772372209558020e+00  5.006389836766901e-03 
 9.999999999999911e+00  4.949628818704611e-03 
 1.023292992280745e+01  4.893517542434881e-03 
 1.047128548050890e+01  4.838048383641508e-03 
 1.071519305237597e+01  4.783213804427645e-03 
 1.096478196143175e+01  4.729006352162888e-03 
 1.122018454301953e+01  4.675418658316242e-03 
 1.148153621496872e+01  4.622443437380138e-03 
 1.174897554939519e+01  4.570073485650404e-03 
 1.202264434617402e+01  4.518301680255739e-03 
 1.230268770812370e+01  4.467120977932194e-03 
 1.258925411794155e+01  4.416524414001060e-03 
 1.288249551693122e+01  4.366505101199532e-03 
 1.318256738556395e+01  4.317056228726048e-03 
 1.348962882591641e+01  4.268171061045866e-03 
 1.380384264602872e+01  4.219842936898025e-03 
 1.412537544622741e+01  4.172065268204196e-03 
 1.445439770745913e+01  4.124831539065151e-03 
 1.479108388168193e+01  4.078135304641405e-03 
 1.513561248436193e+01  4.031970190198501e-03 
 1.548816618912466e+01  3.986329890029441e-03 
 1.584893192461098e+01  3.941208166437264e-03 
 1.621810097358914e+01  3.896598848716284e-03 
 1.659586907437544e+01  3.852495832122317e-03 
 1.698243652461728e+01  3.808893076931367e-03 
 1.737800828749359e+01  3.765784607359397e-03 
 1.778279410038905e+01  3.723164510565858e-03 
 1.819700858609966e+01  3.681026935731454e-03 
 1.862087136662849e+01  3.639366093000637e-03 
 1.905460717963228e+01  3.598176252516421e-03 
 1.949844599758026e+01  3.557451743448481e-03 
 1.995262314968860e+01  3.517186952996964e-03 
 2.041737944669509e+01  3.477376325406889e-03 
 2.089296130854019e+01  3.438014361045630e-03 
 2.137962089502211e+01  3.399095615377643e-03 
 2.187761623949531e+01  3.360614698026670e-03 
 2.238721138568317e+01  3.322566271795740e-03 
 2.290867652767750e+01  3.284945051721650e-03 
 2.344228815319899e+01  3.247745804099842e-03 
 2.398832919019467e+01  3.210963345517829e-03 
 2.454708915685006e+01  3.174592541934779e-03 
 2.511886431509555e+01  3.138628307671338e-03 
 2.570395782768838e+01  3.103065604516858e-03 
 2.630267991895355e+01  3.067899440702202e-03 
 2.691534803926888e+01  3.033124870022396e-03 
 2.754228703338138e+01  2.998736990847491e-03 
 2.818382931264425e+01  2.964730945173029e-03 
 2.884031503126576e+01  2.931101917661861e-03 
 2.951209226666355e+01  2.897845134725311e-03 
 3.019951720401985e+01  2.864955863566971e-03 
 3.090295432513559e+01  2.832429411218979e-03 
 3.162277660168347e+01  2.800261123610018e-03 
 3.235936569296249e+01  2.768446384634346e-03 
 3.311311214825876e+01  2.736980615189241e-03 
 3.388441561391990e+01  2.705859272237061e-03 
 3.467368504525280e+01  2.675077847915703e-03 
 3.548133892335717e+01  2.644631868508411e-03 
 3.630780547700975e+01  2.614516893609302e-03 
 3.715352290971686e+01  2.584728515135867e-03 
 3.801893963205572e+01  2.555262356426520e-03 
 3.890451449942765e+01  2.526114071322452e-03 
 3.981071705534930e+01  2.497279343246822e-03 
 4.073802778041084e+01  2.468753815286542e-03 
 4.168693834703309e+01  2.440533366148110e-03 
 4.265795188015881e+01  2.412613692749276e-03 
 4.365158322401612e+01  2.384990587839565e-03 
 4.466835921509583e+01  2.357659869292880e-03 
 4.570881896148700e+01  2.330617379260778e-03 
 4.677351412871931e+01  2.303858983296000e-03 
 4.786300923226331e+01  2.277380569546443e-03 
 4.897788193684408e+01  2.251178047936623e-03 
 5.011872336272667e+01  2.225247349350631e-03 
 5.128613839913591e+01  2.199584424906131e-03 
 5.248074602497667e+01  2.174185245133731e-03 
 5.370317963702468e+01  2.149045799341743e-03 
 5.495408738576185e+01  2.124162094830762e-03 
 5.623413251903428e+01  2.099530156297453e-03 
 5.754399373371505e+01  2.075146025188244e-03 
 5.888436553555824e+01  2.051005759115859e-03 
 6.025595860743510e+01  2.027105431309979e-03 
 6.165950018614752e+01  2.003441130132268e-03 
 6.309573444801861e+01  1.980008958622267e-03 
 6.456542290346482e+01  1.956805034128428e-03 
 6.606934480075886e+01  1.933825487973418e-03 
 6.760829753919741e+01  1.911066465188809e-03 
 6.918309709189286e+01  1.888524124357891e-03 
 7.079457843841298e+01  1.866194637485518e-03 
 7.244359600749817e+01  1.844074189987536e-03 
 7.413102413009089e+01  1.822158980768726e-03 
 7.585775750291749e+01  1.800445222395223e-03 
 7.762471166286826e+01  1.778929141367878e-03 
 7.943282347242722e+01  1.757606978518074e-03 
 8.128305161640897e+01  1.736474989529092e-03 
 8.317637711026612e+01  1.715529445008903e-03 
 8.511380382023664e+01  1.694766633563694e-03 
 8.709635899560703e+01  1.674182859300359e-03 
 8.912509381337350e+01  1.653774445209537e-03 
 9.120108393558989e+01  1.633537646567764e-03 
 9.332543007969799e+01  1.613469002843029e-03 
 9.549925860214246e+01  1.593564811653798e-03 
 9.772372209557990e+01  1.573821483674750e-03 
 9.999999999999881e+01  1.554235456050848e-03 
 1.023292992280742e+02  1.534803194662651e-03 
 1.047128548050887e+02  1.515521196550555e-03 
 1.071519305237593e+02  1.496385992640346e-03 
 1.096478196143172e+02  1.477394150663863e-03 
 1.122018454301950e+02  1.458542278345111e-03 
 1.148153621496869e+02  1.439827026843098e-03 
 1.174897554939515e+02  1.421245093535102e-03 
 1.202264434617398e+02  1.402793229593873e-03 
 1.230268770812366e+02  1.384468203408673e-03 
 1.258925411794152e+02  1.366266950867245e-03 
 1.288249551693118e+02  1.348186365055816e-03 
 1.318256738556391e+02  1.330223444684026e-03 
 1.348962882591637e+02  1.312375263392023e-03 
 1.380384264602868e+02  1.294638975310537e-03 
 1.412537544622737e+02  1.277011820854356e-03 
 1.445439770745910e+02  1.259491132400160e-03 
 1.479108388168189e+02  1.242074342063237e-03 
 1.513561248436189e+02  1.224758985858299e-03 
 1.548816618912462e+02  1.207542711892573e-03 
 1.584893192461094e+02  1.190423286762156e-03 
