 frequency              loop_real              loop_imag             
 1.000000000000000e+00  3.560875654543854e+02 -7.144098171768391e-04 
 1.011579454259899e+00  3.560875654543520e+02 -7.226822929775929e-04 
 1.023292992280754e+00  3.560875654543179e+02 -7.310505595334959e-04 
 1.035142166679344e+00  3.560875654542829e+02 -7.395157260492148e-04 
 1.047128548050900e+00  3.560875654542472e+02 -7.480789145734021e-04 
 1.059253725177289e+00  3.560875654542106e+02 -7.567412601474216e-04 
 1.071519305237607e+00  3.560875654541732e+02 -7.655039109557960e-04 
 1.083926914021204e+00  3.560875654541349e+02 -7.743680284783992e-04 
 1.096478196143186e+00  3.560875654540957e+02 -7.833347876444064e-04 
 1.109174815262402e+00  3.560875654540556e+02 -7.924053769880333e-04 
 1.122018454301964e+00  3.560875654540146e+02 -8.015809988060719e-04 
 1.135010815672316e+00  3.560875654539725e+02 -8.108628693172548e-04 
 1.148153621496884e+00  3.560875654539295e+02 -8.202522188234653e-04 
 1.161448613840344e+00  3.560875654538856e+02 -8.297502918728095e-04 
 1.174897554939531e+00  3.560875654538406e+02 -8.393583474245821e-04 
 1.188502227437020e+00  3.560875654537945e+02 -8.490776590161395e-04 
 1.202264434617414e+00  3.560875654537474e+02 -8.589095149317052e-04 
 1.216186000646369e+00  3.560875654536993e+02 -8.688552183731306e-04 
 1.230268770812383e+00  3.560875654536499e+02 -8.789160876326346e-04 
 1.244514611771387e+00  3.560875654535994e+02 -8.890934562675398e-04 
 1.258925411794169e+00  3.560875654535477e+02 -8.993886732770344e-04 
 1.273503081016663e+00  3.560875654534948e+02 -9.098031032809820e-04 
 1.288249551693136e+00  3.560875654534407e+02 -9.203381267007981e-04 
 1.303166778452301e+00  3.560875654533853e+02 -9.309951399424260e-04 
 1.318256738556409e+00  3.560875654533286e+02 -9.417755555814280e-04 
 1.333521432163326e+00  3.560875654532707e+02 -9.526808025502183e-04 
 1.348962882591656e+00  3.560875654532114e+02 -9.637123263274718e-04 
 1.364583136588927e+00  3.560875654531507e+02 -9.748715891297152e-04 
 1.380384264602887e+00  3.560875654530886e+02 -9.861600701051452e-04 
 1.396368361055940e+00  3.560875654530250e+02 -9.975792655296885e-04 
 1.412537544622757e+00  3.560875654529600e+02 -1.009130689005328e-03 
 1.428893958511106e+00  3.560875654528934e+02 -1.020815871660735e-03 
 1.445439770745931e+00  3.560875654528252e+02 -1.032636362354211e-03 
 1.462177174456721e+00  3.560875654527555e+02 -1.044593727878995e-03 
 1.479108388168211e+00  3.560875654526843e+02 -1.056689553170936e-03 
 1.496235656094437e+00  3.560875654526113e+02 -1.068925441518573e-03 
 1.513561248436212e+00  3.560875654525366e+02 -1.081303014775653e-03 
 1.531087461682034e+00  3.560875654524601e+02 -1.093823913576102e-03 
 1.548816618912485e+00  3.560875654523819e+02 -1.106489797551497e-03 
 1.566751070108153e+00  3.560875654523019e+02 -1.119302345551038e-03 
 1.584893192461118e+00  3.560875654522200e+02 -1.132263255864083e-03 
 1.603245390690046e+00  3.560875654521363e+02 -1.145374246445256e-03 
 1.621810097358934e+00  3.560875654520505e+02 -1.158637055142156e-03 
 1.640589773199544e+00  3.560875654519627e+02 -1.172053439925710e-03 
 1.659586907437565e+00  3.560875654518729e+02 -1.185625179123187e-03 
 1.678804018122565e+00  3.560875654517810e+02 -1.199354071653919e-03 
 1.698243652461749e+00  3.560875654516869e+02 -1.213241937267739e-03 
 1.717908387157593e+00  3.560875654515908e+02 -1.227290616786190e-03 
 1.737800828749381e+00  3.560875654514923e+02 -1.241501972346525e-03 
 1.757923613958698e+00  3.560875654513916e+02 -1.255877887648531e-03 
 1.778279410038929e+00  3.560875654512885e+02 -1.270420268204207e-03 
 1.798870915128794e+00  3.560875654511830e+02 -1.285131041590346e-03 
 1.819700858609990e+00  3.560875654510750e+02 -1.300012157704023e-03 
 1.840772001468962e+00  3.560875654509646e+02 -1.315065589021061e-03 
 1.862087136662874e+00  3.560875654508516e+02 -1.330293330857476e-03 
 1.883649089489807e+00  3.560875654507358e+02 -1.345697401633951e-03 
 1.905460717963254e+00  3.560875654506174e+02 -1.361279843143383e-03 
 1.927524913190943e+00  3.560875654504964e+02 -1.377042720821516e-03 
 1.949844599758053e+00  3.560875654503723e+02 -1.392988124020711e-03 
 1.972422736114861e+00  3.560875654502456e+02 -1.409118166286889e-03 
 1.995262314968888e+00  3.560875654501158e+02 -1.425434985639681e-03 
 2.018366363681569e+00  3.560875654499829e+02 -1.441940744855817e-03 
 2.041737944669538e+00  3.560875654498470e+02 -1.458637631755803e-03 
 2.065380155810538e+00  3.560875654497080e+02 -1.475527859493910e-03 
 2.089296130854049e+00  3.560875654495657e+02 -1.492613666851530e-03 
 2.113489039836656e+00  3.560875654494200e+02 -1.509897318533920e-03 
 2.137962089502242e+00  3.560875654492710e+02 -1.527381105470388e-03 
 2.162718523727030e+00  3.560875654491185e+02 -1.545067345117955e-03 
 2.187761623949563e+00  3.560875654489625e+02 -1.562958381768527e-03 
 2.213094709605648e+00  3.560875654488028e+02 -1.581056586859632e-03 
 2.238721138568351e+00  3.560875654486394e+02 -1.599364359288751e-03 
 2.264644307593071e+00  3.560875654484723e+02 -1.617884125731288e-03 
 2.290867652767784e+00  3.560875654483011e+02 -1.636618340962224e-03 
 2.317394649968490e+00  3.560875654481260e+02 -1.655569488181493e-03 
 2.344228815319934e+00  3.560875654479468e+02 -1.674740079343133e-03 
 2.371373705661667e+00  3.560875654477636e+02 -1.694132655488234e-03 
 2.398832919019502e+00  3.560875654475760e+02 -1.713749787081758e-03 
 2.426610095082428e+00  3.560875654473840e+02 -1.733594074353248e-03 
 2.454708915685043e+00  3.560875654471875e+02 -1.753668147641486e-03 
 2.483133105295583e+00  3.560875654469866e+02 -1.773974667743142e-03 
 2.511886431509593e+00  3.560875654467808e+02 -1.794516326265456e-03 
 2.540972705549319e+00  3.560875654465703e+02 -1.815295845983016e-03 
 2.570395782768878e+00  3.560875654463549e+02 -1.836315981198649e-03 
 2.600159563165286e+00  3.560875654461345e+02 -1.857579518108511e-03 
 2.630267991895396e+00  3.560875654459090e+02 -1.879089275171384e-03 
 2.660725059798824e+00  3.560875654456781e+02 -1.900848103482266e-03 
 2.691534803926931e+00  3.560875654454420e+02 -1.922858887150280e-03 
 2.722701308077928e+00  3.560875654452003e+02 -1.945124543680956e-03 
 2.754228703338182e+00  3.560875654449530e+02 -1.967648024362950e-03 
 2.786121168629787e+00  3.560875654446998e+02 -1.990432314659228e-03 
 2.818382931264471e+00  3.560875654444410e+02 -2.013480434602785e-03 
 2.851018267503926e+00  3.560875654441759e+02 -2.036795439196954e-03 
 2.884031503126623e+00  3.560875654439047e+02 -2.060380418820337e-03 
 2.917427014001185e+00  3.560875654436273e+02 -2.084238499636436e-03 
 2.951209226666404e+00  3.560875654433434e+02 -2.108372844008015e-03 
 2.985382618917978e+00  3.560875654430528e+02 -2.132786650916279e-03 
 3.019951720402035e+00  3.560875654427554e+02 -2.157483156384886e-03 
 3.054921113215533e+00  3.560875654424513e+02 -2.182465633908883e-03 
 3.090295432513610e+00  3.560875654421398e+02 -2.207737394888603e-03 
 3.126079367123975e+00  3.560875654418212e+02 -2.233301789068587e-03 
 3.162277660168400e+00  3.560875654414952e+02 -2.259162204981589e-03 
 3.198895109691419e+00  3.560875654411615e+02 -2.285322070397726e-03 
 3.235936569296304e+00  3.560875654408201e+02 -2.311784852778818e-03 
 3.273406948788404e+00  3.560875654404708e+02 -2.338554059738004e-03 
 3.311311214825934e+00  3.560875654401134e+02 -2.365633239504667e-03 
 3.349654391578300e+00  3.560875654397476e+02 -2.393025981394750e-03 
 3.388441561392050e+00  3.560875654393733e+02 -2.420735916286518e-03 
 3.427677865464528e+00  3.560875654389902e+02 -2.448766717101820e-03 
 3.467368504525342e+00  3.560875654385983e+02 -2.477122099292937e-03 
 3.507518739525706e+00  3.560875654381972e+02 -2.505805821335064e-03 
 3.548133892335781e+00  3.560875654377867e+02 -2.534821685224480e-03 
 3.589219346450079e+00  3.560875654373667e+02 -2.564173536982515e-03 
 3.630780547701041e+00  3.560875654369370e+02 -2.593865267165318e-03 
 3.672823004980875e+00  3.560875654364972e+02 -2.623900811379560e-03 
 3.715352290971754e+00  3.560875654360472e+02 -2.654284150804088e-03 
 3.758374042884471e+00  3.560875654355867e+02 -2.685019312717629e-03 
 3.801893963205642e+00  3.560875654351154e+02 -2.716110371032594e-03 
 3.845917820453566e+00  3.560875654346332e+02 -2.747561446835084e-03 
 3.890451449942837e+00  3.560875654341397e+02 -2.779376708931124e-03 
 3.935500754557806e+00  3.560875654336348e+02 -2.811560374399235e-03 
 3.981071705535005e+00  3.560875654331180e+02 -2.844116709149411e-03 
 4.027170343254624e+00  3.560875654325894e+02 -2.877050028488551e-03 
 4.073802778041161e+00  3.560875654320483e+02 -2.910364697692456e-03 
 4.120975190973336e+00  3.560875654314946e+02 -2.944065132584434e-03 
 4.168693834703389e+00  3.560875654309281e+02 -2.978155800120623e-03 
 4.216965034285859e+00  3.560875654303484e+02 -3.012641218982072e-03 
 4.265795188015963e+00  3.560875654297550e+02 -3.047525960173684e-03 
 4.315190768277690e+00  3.560875654291481e+02 -3.082814647630118e-03 
 4.365158322401698e+00  3.560875654285268e+02 -3.118511958828660e-03 
 4.415704473533165e+00  3.560875654278910e+02 -3.154622625409236e-03 
 4.466835921509672e+00  3.560875654272406e+02 -3.191151433801579e-03 
 4.518559443749265e+00  3.560875654265749e+02 -3.228103225859663e-03 
 4.570881896148792e+00  3.560875654258938e+02 -3.265482899503496e-03 
 4.623810213992646e+00  3.560875654251968e+02 -3.303295409368315e-03 
 4.677351412872025e+00  3.560875654244835e+02 -3.341545767461341e-03 
 4.731512589614849e+00  3.560875654237537e+02 -3.380239043826094e-03 
 4.786300923226428e+00  3.560875654230068e+02 -3.419380367214435e-03 
 4.841723675841039e+00  3.560875654222426e+02 -3.458974925766372e-03 
 4.897788193684509e+00  3.560875654214605e+02 -3.499027967697740e-03 
 4.954501908047950e+00  3.560875654206602e+02 -3.539544801995853e-03 
 5.011872336272772e+00  3.560875654198413e+02 -3.580530799123198e-03 
 5.069907082747093e+00  3.560875654190033e+02 -3.621991391729285e-03 
 5.128613839913699e+00  3.560875654181458e+02 -3.663932075370745e-03 
 5.188000389289662e+00  3.560875654172683e+02 -3.706358409239749e-03 
 5.248074602497778e+00  3.560875654163703e+02 -3.749276016900884e-03 
 5.308844442309936e+00  3.560875654154515e+02 -3.792690587036541e-03 
 5.370317963702581e+00  3.560875654145113e+02 -3.836607874200958e-03 
 5.432503314924387e+00  3.560875654135492e+02 -3.881033699582955e-03 
 5.495408738576301e+00  3.560875654125646e+02 -3.925973951777554e-03 
 5.559042572704092e+00  3.560875654115571e+02 -3.971434587566487e-03 
 5.623413251903548e+00  3.560875654105261e+02 -4.017421632707768e-03 
 5.688529308438473e+00  3.560875654094711e+02 -4.063941182734404e-03 
 5.754399373371629e+00  3.560875654083916e+02 -4.110999403762342e-03 
 5.821032177708775e+00  3.560875654072869e+02 -4.158602533307788e-03 
 5.888436553555951e+00  3.560875654061564e+02 -4.206756881113976e-03 
 5.956621435290167e+00  3.560875654049996e+02 -4.255468829987536e-03 
 6.025595860743641e+00  3.560875654038160e+02 -4.304744836644500e-03 
 6.095368972401756e+00  3.560875654026047e+02 -4.354591432566161e-03 
 6.165950018614887e+00  3.560875654013652e+02 -4.405015224864783e-03 
 6.237348354824259e+00  3.560875654000969e+02 -4.456022897159403e-03 
 6.309573444802000e+00  3.560875653987989e+02 -4.507621210461702e-03 
 6.382634861905555e+00  3.560875653974708e+02 -4.559817004072199e-03 
 6.456542290346625e+00  3.560875653961118e+02 -4.612617196486769e-03 
 6.531305526474794e+00  3.560875653947210e+02 -4.666028786313697e-03 
 6.606934480076032e+00  3.560875653932978e+02 -4.720058853201336e-03 
 6.683439175686219e+00  3.560875653918417e+02 -4.774714558776500e-03 
 6.760829753919892e+00  3.560875653903514e+02 -4.830003147593724e-03 
 6.839116472814369e+00  3.560875653888265e+02 -4.885931948095545e-03 
 6.918309709189442e+00  3.560875653872661e+02 -4.942508373583853e-03 
 6.998419960022813e+00  3.560875653856693e+02 -4.999739923202529e-03 
 7.079457843841459e+00  3.560875653840354e+02 -5.057634182931450e-03 
 7.161434102129101e+00  3.560875653823634e+02 -5.116198826591999e-03 
 7.244359600749983e+00  3.560875653806524e+02 -5.175441616864219e-03 
 7.328245331389125e+00  3.560875653789016e+02 -5.235370406315751e-03 
 7.413102413009261e+00  3.560875653771099e+02 -5.295993138442687e-03 
 7.498942093324645e+00  3.560875653752766e+02 -5.357317848722458e-03 
 7.585775750291926e+00  3.560875653734006e+02 -5.419352665678946e-03 
 7.673614893618280e+00  3.560875653714808e+02 -5.482105811959903e-03 
 7.762471166287009e+00  3.560875653695164e+02 -5.545585605426846e-03 
 7.852356346100811e+00  3.560875653675062e+02 -5.609800460257591e-03 
 7.943282347242909e+00  3.560875653654491e+02 -5.674758888061542e-03 
 8.035261221856269e+00  3.560875653633441e+02 -5.740469499007899e-03 
 8.128305161641091e+00  3.560875653611902e+02 -5.806941002966905e-03 
 8.222426499470812e+00  3.560875653589861e+02 -5.874182210664357e-03 
 8.317637711026812e+00  3.560875653567305e+02 -5.942202034849442e-03 
 8.413951416452054e+00  3.560875653544226e+02 -6.011009491476124e-03 
 8.511380382023869e+00  3.560875653520607e+02 -6.080613700898188e-03 
 8.609937521846113e+00  3.560875653496439e+02 -6.151023889078133e-03 
 8.709635899560915e+00  3.560875653471707e+02 -6.222249388810074e-03 
 8.810488730080252e+00  3.560875653446400e+02 -6.294299640956782e-03 
 8.912509381337568e+00  3.560875653420504e+02 -6.367184195701068e-03 
 9.015711376059683e+00  3.560875653394004e+02 -6.440912713811640e-03 
 9.120108393559214e+00  3.560875653366887e+02 -6.515494967923640e-03 
 9.225714271547750e+00  3.560875653339139e+02 -6.590940843833990e-03 
 9.332543007970031e+00  3.560875653310743e+02 -6.667260341811736e-03 
 9.440608762859357e+00  3.560875653281687e+02 -6.744463577923587e-03 
 9.549925860214485e+00  3.560875653251954e+02 -6.822560785374782e-03 
 9.660508789898261e+00  3.560875653221528e+02 -6.901562315865480e-03 
 9.772372209558236e+00  3.560875653190394e+02 -6.981478640962884e-03 
 9.885530946569521e+00  3.560875653158534e+02 -7.062320353489233e-03 
 1.000000000000014e+01  3.560875653125931e+02 -7.144098168925853e-03 
 1.011579454259912e+01  3.560875653092571e+02 -7.226822926833498e-03 
 1.023292992280768e+01  3.560875653058432e+02 -7.310505592289121e-03 
 1.035142166679358e+01  3.560875653023498e+02 -7.395157257339268e-03 
 1.047128548050914e+01  3.560875652987751e+02 -7.480789142470344e-03 
 1.059253725177304e+01  3.560875652951171e+02 -7.567412598095846e-03 
 1.071519305237621e+01  3.560875652913739e+02 -7.655039106060866e-03 
 1.083926914021219e+01  3.560875652875436e+02 -7.743680281163999e-03 
 1.096478196143201e+01  3.560875652836240e+02 -7.833347872696853e-03 
 1.109174815262417e+01  3.560875652796130e+02 -7.924053766001433e-03 
 1.122018454301980e+01  3.560875652755087e+02 -8.015809984045497e-03 
 1.135010815672332e+01  3.560875652713087e+02 -8.108628689016227e-03 
 1.148153621496900e+01  3.560875652670110e+02 -8.202522183932262e-03 
 1.161448613840360e+01  3.560875652626132e+02 -8.297502914274514e-03 
 1.174897554939547e+01  3.560875652581129e+02 -8.393583469635726e-03 
 1.188502227437036e+01  3.560875652535076e+02 -8.490776585389286e-03 
 1.202264434617431e+01  3.560875652487953e+02 -8.589095144377239e-03 
 1.216186000646386e+01  3.560875652439732e+02 -8.688552178617899e-03 
 1.230268770812400e+01  3.560875652390386e+02 -8.789160871033241e-03 
 1.244514611771404e+01  3.560875652339892e+02 -8.890934557196278e-03 
 1.258925411794186e+01  3.560875652288221e+02 -8.993886727098672e-03 
 1.273503081016681e+01  3.560875652235347e+02 -9.098031026938824e-03 
 1.288249551693154e+01  3.560875652181242e+02 -9.203381260930669e-03 
 1.303166778452319e+01  3.560875652125875e+02 -9.309951393133375e-03 
 1.318256738556427e+01  3.560875652069220e+02 -9.417755549302312e-03 
 1.333521432163345e+01  3.560875652011246e+02 -9.526808018761374e-03 
 1.348962882591675e+01  3.560875651951919e+02 -9.637123256297014e-03 
 1.364583136588946e+01  3.560875651891212e+02 -9.748715884074232e-03 
 1.380384264602906e+01  3.560875651829091e+02 -9.861600693574699e-03 
 1.396368361055960e+01  3.560875651765522e+02 -9.975792647557382e-03 
 1.412537544622777e+01  3.560875651700472e+02 -1.009130688204180e-02 
 1.428893958511125e+01  3.560875651633908e+02 -1.020815870831431e-02 
 1.445439770745950e+01  3.560875651565793e+02 -1.032636361495764e-02 
 1.462177174456741e+01  3.560875651496091e+02 -1.044593726990381e-02 
 1.479108388168231e+01  3.560875651424766e+02 -1.056689552251093e-02 
 1.496235656094458e+01  3.560875651351780e+02 -1.068925440566403e-02 
 1.513561248436233e+01  3.560875651277094e+02 -1.081303013790021e-02 
 1.531087461682055e+01  3.560875651200668e+02 -1.093823912555835e-02 
 1.548816618912507e+01  3.560875651122461e+02 -1.106489796495374e-02 
 1.566751070108175e+01  3.560875651042432e+02 -1.119302344457800e-02 
 1.584893192461140e+01  3.560875650960540e+02 -1.132263254732426e-02 
 1.603245390690068e+01  3.560875650876740e+02 -1.145374245273830e-02 
 1.621810097358957e+01  3.560875650790989e+02 -1.158637053929563e-02 
 1.640589773199567e+01  3.560875650703240e+02 -1.172053438670503e-02 
 1.659586907437589e+01  3.560875650613447e+02 -1.185625177823870e-02 
 1.678804018122589e+01  3.560875650521562e+02 -1.199354070308940e-02 
 1.698243652461773e+01  3.560875650427537e+02 -1.213241935875494e-02 
 1.717908387157618e+01  3.560875650331322e+02 -1.227290615345019e-02 
 1.737800828749405e+01  3.560875650232866e+02 -1.241501970854708e-02 
 1.757923613958723e+01  3.560875650132118e+02 -1.255877886104287e-02 
 1.778279410038954e+01  3.560875650029021e+02 -1.270420266605695e-02 
 1.798870915128819e+01  3.560875649923523e+02 -1.285131039935658e-02 
 1.819700858610015e+01  3.560875649815569e+02 -1.300012155991186e-02 
 1.840772001468988e+01  3.560875649705099e+02 -1.315065587248031e-02 
 1.862087136662900e+01  3.560875649592057e+02 -1.330293329022136e-02 
 1.883649089489834e+01  3.560875649476380e+02 -1.345697399734113e-02 
 1.905460717963281e+01  3.560875649358010e+02 -1.361279841176781e-02 
 1.927524913190970e+01  3.560875649236883e+02 -1.377042718785802e-02 
 1.949844599758080e+01  3.560875649112933e+02 -1.392988121913457e-02 
 1.972422736114889e+01  3.560875648986097e+02 -1.409118164105581e-02 
 1.995262314968916e+01  3.560875648856307e+02 -1.425434983381717e-02 
 2.018366363681598e+01  3.560875648723494e+02 -1.441940742518504e-02 
 2.041737944669567e+01  3.560875648587586e+02 -1.458637629336350e-02 
 2.065380155810567e+01  3.560875648448513e+02 -1.475527856989432e-02 
 2.089296130854078e+01  3.560875648306201e+02 -1.492613664259039e-02 
 2.113489039836686e+01  3.560875648160574e+02 -1.509897315850322e-02 
 2.137962089502272e+01  3.560875648011555e+02 -1.527381102692484e-02 
 2.162718523727061e+01  3.560875647859065e+02 -1.545067342242427e-02 
 2.187761623949594e+01  3.560875647703022e+02 -1.562958378791946e-02 
 2.213094709605679e+01  3.560875647543344e+02 -1.581056583778448e-02 
 2.238721138568382e+01  3.560875647379949e+02 -1.599364356099287e-02 
 2.264644307593103e+01  3.560875647212746e+02 -1.617884122429739e-02 
 2.290867652767817e+01  3.560875647041649e+02 -1.636618337544651e-02 
 2.317394649968523e+01  3.560875646866567e+02 -1.655569484643819e-02 
 2.344228815319967e+01  3.560875646687406e+02 -1.674740075681136e-02 
 2.371373705661701e+01  3.560875646504072e+02 -1.694132651697546e-02 
 2.398832919019537e+01  3.560875646316468e+02 -1.713749783157857e-02 
 2.426610095082463e+01  3.560875646124493e+02 -1.733594070291452e-02 
 2.454708915685078e+01  3.560875645928048e+02 -1.753668143436949e-02 
 2.483133105295619e+01  3.560875645727027e+02 -1.773974663390847e-02 
 2.511886431509629e+01  3.560875645521323e+02 -1.794516321760212e-02 
 2.540972705549355e+01  3.560875645310828e+02 -1.815295841319448e-02 
 2.570395782768914e+01  3.560875645095429e+02 -1.836315976371193e-02 
 2.600159563165323e+01  3.560875644875013e+02 -1.857579513111407e-02 
